PE UV       SUBTECH     SPECTRUM    ASCII       PEDS        4.00        
   -1
100% or 0 Absorbance Baseline.Correction.ASC
26/05/13
16:21:32.00
26/05/13
16:21:32.00
Jinky Agarwala

190.000000
1
Lambda 850+
860L2410213
PerkinElmer UV WinLab 7.4.0.367 / 2.02.11 Lambda 800 UV/VIS, May 23 2018 11:23:04

0
0
1
0
0
UV/VIS
1
1
10
RBeamAtt,SBeamAtt,uv/vis detector
0
0
0
0
Fix
 
0
0.2
0
0
0
 
 
 
0
 
0
319.2
0
Front
100
 
S:100 R:100
 
0
0
0
 
0
 
 
 
0
 
 
0
0
0
0
0
 
 
 
 
0
0


0
0

0


#HDR
-1
-1
#GR
nm
%T
1.0
0.0
800.000000
-1.000000
611
8
91.896400
73.785700
#DATA
800.000000	91.896400
799.000000	91.865300
798.000000	91.830900
797.000000	91.799300
796.000000	91.798000
795.000000	91.773600
794.000000	91.801800
793.000000	91.795600
792.000000	91.759300
791.000000	91.733000
790.000000	91.708500
789.000000	91.680500
788.000000	91.654900
787.000000	91.639000
786.000000	91.625800
785.000000	91.587500
784.000000	91.591600
783.000000	91.576100
782.000000	91.489900
781.000000	91.444000
780.000000	91.462500
779.000000	91.450700
778.000000	91.411100
777.000000	91.409400
776.000000	91.347600
775.000000	91.342400
774.000000	91.302500
773.000000	91.285200
772.000000	91.277200
771.000000	91.257600
770.000000	91.228100
769.000000	91.179300
768.000000	91.170400
767.000000	91.135300
766.000000	91.115500
765.000000	91.113700
764.000000	91.069600
763.000000	91.078100
762.000000	91.040300
761.000000	91.009000
760.000000	90.962600
759.000000	90.947500
758.000000	90.922500
757.000000	90.881600
756.000000	90.865600
755.000000	90.836100
754.000000	90.813000
753.000000	90.778000
752.000000	90.763100
751.000000	90.723900
750.000000	90.731700
749.000000	90.672200
748.000000	90.642100
747.000000	90.628700
746.000000	90.602400
745.000000	90.569500
744.000000	90.528500
743.000000	90.499100
742.000000	90.507800
741.000000	90.492400
740.000000	90.438700
739.000000	90.430000
738.000000	90.382400
737.000000	90.365100
736.000000	90.334300
735.000000	90.322400
734.000000	90.306100
733.000000	90.275600
732.000000	90.236600
731.000000	90.195300
730.000000	90.171900
729.000000	90.126400
728.000000	90.118400
727.000000	90.105300
726.000000	90.075100
725.000000	90.037000
724.000000	90.032700
723.000000	90.017100
722.000000	89.989700
721.000000	89.949700
720.000000	89.929100
719.000000	89.911000
718.000000	89.878400
717.000000	89.857500
716.000000	89.841800
715.000000	89.828300
714.000000	89.796700
713.000000	89.759900
712.000000	89.746100
711.000000	89.727800
710.000000	89.703900
709.000000	89.668500
708.000000	89.647200
707.000000	89.622300
706.000000	89.591500
705.000000	89.564400
704.000000	89.531900
703.000000	89.528600
702.000000	89.522900
701.000000	89.515700
700.000000	89.494600
699.000000	89.461400
698.000000	89.421800
697.000000	89.389900
696.000000	89.369600
695.000000	89.354500
694.000000	89.336000
693.000000	89.316500
692.000000	89.301000
691.000000	89.286200
690.000000	89.282500
689.000000	89.263100
688.000000	89.258800
687.000000	89.249500
686.000000	89.214000
685.000000	89.192800
684.000000	89.177300
683.000000	89.163900
682.000000	89.139100
681.000000	89.130000
680.000000	89.095800
679.000000	89.061000
678.000000	89.045100
677.000000	89.040100
676.000000	89.015100
675.000000	88.999800
674.000000	88.989200
673.000000	88.971300
672.000000	88.944600
671.000000	88.916900
670.000000	88.909800
669.000000	88.898100
668.000000	88.877600
667.000000	88.852200
666.000000	88.838200
665.000000	88.825100
664.000000	88.819000
663.000000	88.806100
662.000000	88.782500
661.000000	88.757000
660.000000	88.743400
659.000000	88.730300
658.000000	88.706300
657.000000	88.693300
656.000000	88.688600
655.000000	88.679800
654.000000	88.658600
653.000000	88.634800
652.000000	88.618800
651.000000	88.604000
650.000000	88.595700
649.000000	88.594900
648.000000	88.580200
647.000000	88.551100
646.000000	88.534300
645.000000	88.530200
644.000000	88.520900
643.000000	88.497400
642.000000	88.500800
641.000000	88.485400
640.000000	88.450300
639.000000	88.440200
638.000000	88.432900
637.000000	88.420700
636.000000	88.407100
635.000000	88.391300
634.000000	88.384400
633.000000	88.362800
632.000000	88.344000
631.000000	88.342900
630.000000	88.334700
629.000000	88.316400
628.000000	88.307000
627.000000	88.289900
626.000000	88.285600
625.000000	88.286800
624.000000	88.264500
623.000000	88.250700
622.000000	88.241200
621.000000	88.234000
620.000000	88.212100
619.000000	88.202800
618.000000	88.205700
617.000000	88.190200
616.000000	88.175500
615.000000	88.168200
614.000000	88.156000
613.000000	88.139800
612.000000	88.118700
611.000000	88.102800
610.000000	88.097000
609.000000	88.080600
608.000000	88.082100
607.000000	88.074400
606.000000	88.052500
605.000000	88.044800
604.000000	88.027600
603.000000	88.018000
602.000000	87.997900
601.000000	87.982900
600.000000	87.977000
599.000000	87.969700
598.000000	87.947400
597.000000	87.933500
596.000000	87.913800
595.000000	87.903800
594.000000	87.886100
593.000000	87.876400
592.000000	87.859700
591.000000	87.841000
590.000000	87.834700
589.000000	87.816600
588.000000	87.796800
587.000000	87.790900
586.000000	87.769900
585.000000	87.741000
584.000000	87.733500
583.000000	87.717900
582.000000	87.692800
581.000000	87.686700
580.000000	87.666600
579.000000	87.646400
578.000000	87.635400
577.000000	87.632300
576.000000	87.620000
575.000000	87.597000
574.000000	87.588500
573.000000	87.566000
572.000000	87.556600
571.000000	87.519500
570.000000	87.513300
569.000000	87.489000
568.000000	87.488700
567.000000	87.472500
566.000000	87.458400
565.000000	87.443200
564.000000	87.418400
563.000000	87.404700
562.000000	87.440100
561.000000	87.456100
560.000000	87.435100
559.000000	87.417300
558.000000	87.399900
557.000000	87.384700
556.000000	87.367900
555.000000	87.343800
554.000000	87.327000
553.000000	87.307900
552.000000	87.291000
551.000000	87.269300
550.000000	87.253600
549.000000	87.239000
548.000000	87.206100
547.000000	87.182400
546.000000	87.173800
545.000000	87.147700
544.000000	87.114400
543.000000	87.100500
542.000000	87.078100
541.000000	87.047800
540.000000	87.036000
539.000000	86.990800
538.000000	86.969700
537.000000	86.958700
536.000000	86.912600
535.000000	86.875400
534.000000	86.852200
533.000000	86.808700
532.000000	86.780200
531.000000	86.747900
530.000000	86.712400
529.000000	86.676700
528.000000	86.612000
527.000000	86.565600
526.000000	86.531100
525.000000	86.481200
524.000000	86.430000
523.000000	86.370700
522.000000	86.312900
521.000000	86.254200
520.000000	86.187600
519.000000	86.113400
518.000000	86.051500
517.000000	85.977000
516.000000	85.903900
515.000000	85.829700
514.000000	85.764800
513.000000	85.699800
512.000000	85.624100
511.000000	85.560700
510.000000	85.508900
509.000000	85.460400
508.000000	85.417600
507.000000	85.382800
506.000000	85.360700
505.000000	85.342700
504.000000	85.340500
503.000000	85.336400
502.000000	85.342800
501.000000	85.348800
500.000000	85.372900
499.000000	85.397300
498.000000	85.407900
497.000000	85.451200
496.000000	85.463200
495.000000	85.503300
494.000000	85.523400
493.000000	85.561500
492.000000	85.590100
491.000000	85.597800
490.000000	85.629600
489.000000	85.633100
488.000000	85.631700
487.000000	85.646800
486.000000	85.655100
485.000000	85.669600
484.000000	85.661300
483.000000	85.694300
482.000000	85.717000
481.000000	85.747700
480.000000	85.673300
479.000000	85.561100
478.000000	85.498000
477.000000	85.455000
476.000000	85.405200
475.000000	85.356700
474.000000	85.309600
473.000000	85.248100
472.000000	85.201500
471.000000	85.140500
470.000000	85.086700
469.000000	85.048700
468.000000	84.996000
467.000000	84.945200
466.000000	84.908800
465.000000	84.859600
464.000000	84.830700
463.000000	84.801500
462.000000	84.781100
461.000000	84.751800
460.000000	84.749000
459.000000	84.736900
458.000000	84.737300
457.000000	84.749000
456.000000	84.726200
455.000000	84.739400
454.000000	84.726700
453.000000	84.728600
452.000000	84.719900
451.000000	84.724300
450.000000	84.720000
449.000000	84.723900
448.000000	84.692800
447.000000	84.723000
446.000000	84.698700
445.000000	84.696000
444.000000	84.716400
443.000000	84.719500
442.000000	84.671600
441.000000	84.630300
440.000000	84.591200
439.000000	84.574000
438.000000	84.549000
437.000000	84.522600
436.000000	84.497500
435.000000	84.449400
434.000000	84.446800
433.000000	84.415500
432.000000	84.396600
431.000000	84.372300
430.000000	84.342400
429.000000	84.314600
428.000000	84.282500
427.000000	84.261700
426.000000	84.234200
425.000000	84.188300
424.000000	84.165200
423.000000	84.146600
422.000000	84.126400
421.000000	84.091900
420.000000	84.080600
419.000000	84.059900
418.000000	84.013700
417.000000	83.989300
416.000000	83.977200
415.000000	83.949700
414.000000	83.924700
413.000000	83.899300
412.000000	83.863800
411.000000	83.845900
410.000000	83.835000
409.000000	83.813300
408.000000	83.785900
407.000000	83.756600
406.000000	83.736800
405.000000	83.720100
404.000000	83.697400
403.000000	83.661500
402.000000	83.641900
401.000000	83.630700
400.000000	83.592800
399.000000	83.572600
398.000000	83.535900
397.000000	83.506300
396.000000	83.490300
395.000000	83.464700
394.000000	83.451800
393.000000	83.435300
392.000000	83.424700
391.000000	83.397300
390.000000	83.365500
389.000000	83.349900
388.000000	83.327000
387.000000	83.319300
386.000000	83.316900
385.000000	83.294000
384.000000	83.278300
383.000000	83.281400
382.000000	83.287400
381.000000	83.270300
380.000000	83.251000
379.000000	83.552400
378.000000	83.989700
377.000000	84.014400
376.000000	83.932200
375.000000	83.818700
374.000000	83.691600
373.000000	83.626600
372.000000	83.585300
371.000000	83.524700
370.000000	83.475400
369.000000	83.410200
368.000000	83.344600
367.000000	83.323000
366.000000	83.313200
365.000000	83.247700
364.000000	83.178400
363.000000	83.150000
362.000000	83.129600
361.000000	83.117300
360.000000	83.081300
359.000000	83.050200
358.000000	83.034100
357.000000	83.000800
356.000000	82.986700
355.000000	82.967900
354.000000	82.955500
353.000000	82.938600
352.000000	82.911900
351.000000	82.894000
350.000000	82.889000
349.000000	82.877800
348.000000	82.841900
347.000000	82.800400
346.000000	82.782500
345.000000	82.815200
344.000000	82.818700
343.000000	82.798300
342.000000	82.785000
341.000000	82.780600
340.000000	82.773400
339.000000	82.756200
338.000000	82.734700
337.000000	82.711900
336.000000	82.685300
335.000000	82.681300
334.000000	82.689800
333.000000	82.655700
332.000000	82.660500
331.000000	82.674600
330.000000	82.628400
329.000000	82.610300
328.000000	82.627500
327.000000	82.593600
326.000000	82.576700
325.000000	82.575700
324.000000	82.594400
323.000000	82.573100
322.000000	82.532100
321.000000	82.529900
320.000000	82.530200
319.000000	82.792300
318.000000	82.931100
317.000000	82.878000
316.000000	82.861400
315.000000	82.849900
314.000000	82.795800
313.000000	82.743600
312.000000	82.696700
311.000000	82.701600
310.000000	82.644500
309.000000	82.593900
308.000000	82.543300
307.000000	82.483900
306.000000	82.453200
305.000000	82.417500
304.000000	82.377900
303.000000	82.305900
302.000000	82.257400
301.000000	82.209700
300.000000	82.166500
299.000000	82.128100
298.000000	82.049800
297.000000	81.980500
296.000000	81.939600
295.000000	81.870400
294.000000	81.807200
293.000000	81.738800
292.000000	81.654800
291.000000	81.595900
290.000000	81.515900
289.000000	81.454500
288.000000	81.385900
287.000000	81.308800
286.000000	81.228800
285.000000	81.147800
284.000000	81.083600
283.000000	81.019400
282.000000	80.982400
281.000000	80.924300
280.000000	80.871300
279.000000	80.812500
278.000000	80.772700
277.000000	80.715100
276.000000	80.677100
275.000000	80.651300
274.000000	80.593800
273.000000	80.570700
272.000000	80.546700
271.000000	80.523600
270.000000	80.492000
269.000000	80.476700
268.000000	80.442900
267.000000	80.430900
266.000000	80.401300
265.000000	80.394600
264.000000	80.396500
263.000000	80.383600
262.000000	80.372800
261.000000	80.375700
260.000000	80.387700
259.000000	80.403300
258.000000	80.414900
257.000000	80.449500
256.000000	80.462400
255.000000	80.477900
254.000000	80.516000
253.000000	80.555400
252.000000	80.583400
251.000000	80.627500
250.000000	80.644200
249.000000	80.693300
248.000000	80.719400
247.000000	80.776400
246.000000	80.804900
245.000000	80.865800
244.000000	80.949400
243.000000	81.011000
242.000000	81.110100
241.000000	81.211700
240.000000	81.331700
239.000000	81.443100
238.000000	81.544700
237.000000	81.674300
236.000000	81.743100
235.000000	81.823600
234.000000	81.880100
233.000000	81.893100
232.000000	81.866300
231.000000	81.843200
230.000000	81.792600
229.000000	81.720200
228.000000	81.630700
227.000000	81.500400
226.000000	81.362400
225.000000	81.223300
224.000000	81.060300
223.000000	80.868900
222.000000	80.669300
221.000000	80.466700
220.000000	80.259100
219.000000	80.049400
218.000000	79.845400
217.000000	79.622900
216.000000	79.399400
215.000000	79.177700
214.000000	78.906700
213.000000	78.635600
212.000000	78.359300
211.000000	78.097700
210.000000	77.828800
209.000000	77.545400
208.000000	77.241500
207.000000	76.940900
206.000000	76.640300
205.000000	76.295600
204.000000	75.950400
203.000000	75.589700
202.000000	75.162700
201.000000	74.703400
200.000000	74.301700
199.000000	74.008700
198.000000	73.818100
197.000000	73.785700
196.000000	73.785800
195.000000	73.846300
194.000000	74.098200
193.000000	74.204100
192.000000	74.969500
191.000000	75.019200
190.000000	75.761400
