PE UV       SUBTECH     SPECTRUM    ASCII       PEDS        4.00        
   -1
C2F6_9bar.Sample.Cycle1.ASC
26/05/13
20:24:47.00
26/05/13
20:24:47.00
Jinky Agarwala

190.000000
1
Lambda 850+
860L2410213
PerkinElmer UV WinLab 7.4.0.367 / 2.02.11 Lambda 800 UV/VIS, May 23 2018 11:23:04

0
0
1
0
0
UV/VIS
1
1
10
RBeamAtt,SBeamAtt,uv/vis detector
0
0
0
0
Fix
 
0
0.2
0
0
0
 
 
 
0
 
0
319.2
0
Front
100
 
S:100 R:100
 
0
0
0
 
0
 
 
 
0
 
 
0
0
0
0
0
 
 
 
 
0
0


0
0

0


#HDR
-1
-1
#GR
nm
%T
1.0
0.0
800.000000
-1.000000
611
8
100.254253
97.084267
#DATA
800.000000	100.156045
799.000000	100.228160
798.000000	100.204942
797.000000	100.239218
796.000000	100.221900
795.000000	100.236234
794.000000	100.160781
793.000000	100.150334
792.000000	100.174805
791.000000	100.161992
790.000000	100.131940
789.000000	100.254253
788.000000	100.165949
787.000000	100.200570
786.000000	100.198525
785.000000	100.195878
784.000000	100.169994
783.000000	100.126452
782.000000	100.190185
781.000000	100.236429
780.000000	100.177122
779.000000	100.159649
778.000000	100.211462
777.000000	100.164644
776.000000	100.233066
775.000000	100.213154
774.000000	100.247529
773.000000	100.233992
772.000000	100.159843
771.000000	100.177191
770.000000	100.149515
769.000000	100.190394
768.000000	100.172095
767.000000	100.196631
766.000000	100.204246
765.000000	100.139716
764.000000	100.202043
763.000000	100.168427
762.000000	100.188927
761.000000	100.151194
760.000000	100.233832
759.000000	100.184722
758.000000	100.194121
757.000000	100.156467
756.000000	100.178395
755.000000	100.155995
754.000000	100.208891
753.000000	100.198286
752.000000	100.153587
751.000000	100.177682
750.000000	100.163449
749.000000	100.188591
748.000000	100.202886
747.000000	100.168269
746.000000	100.148230
745.000000	100.165508
744.000000	100.197065
743.000000	100.225085
742.000000	100.170704
741.000000	100.149847
740.000000	100.156570
739.000000	100.135022
738.000000	100.171162
737.000000	100.169202
736.000000	100.189629
735.000000	100.171940
734.000000	100.144730
733.000000	100.133812
732.000000	100.146393
731.000000	100.184710
730.000000	100.192299
729.000000	100.206488
728.000000	100.193745
727.000000	100.163697
726.000000	100.185401
725.000000	100.189811
724.000000	100.182378
723.000000	100.151527
722.000000	100.148795
721.000000	100.170762
720.000000	100.161016
719.000000	100.152262
718.000000	100.173345
717.000000	100.173274
716.000000	100.167851
715.000000	100.166874
714.000000	100.173503
713.000000	100.185606
712.000000	100.191986
711.000000	100.168844
710.000000	100.174128
709.000000	100.168733
708.000000	100.185282
707.000000	100.201624
706.000000	100.198568
705.000000	100.200861
704.000000	100.191999
703.000000	100.173799
702.000000	100.167778
701.000000	100.159749
700.000000	100.143584
699.000000	100.158057
698.000000	100.184071
697.000000	100.186710
696.000000	100.199397
695.000000	100.193163
694.000000	100.171487
693.000000	100.176227
692.000000	100.172003
691.000000	100.173599
690.000000	100.170470
689.000000	100.179469
688.000000	100.163681
687.000000	100.148796
686.000000	100.165893
685.000000	100.164699
684.000000	100.164279
683.000000	100.166099
682.000000	100.151112
681.000000	100.131157
680.000000	100.172286
679.000000	100.192677
678.000000	100.195070
677.000000	100.180593
676.000000	100.184463
675.000000	100.167304
674.000000	100.162941
673.000000	100.174213
672.000000	100.176514
671.000000	100.189503
670.000000	100.187831
669.000000	100.191568
668.000000	100.192624
667.000000	100.189753
666.000000	100.190233
665.000000	100.186209
664.000000	100.165618
663.000000	100.163840
662.000000	100.173345
661.000000	100.194126
660.000000	100.186493
659.000000	100.186182
658.000000	100.194349
657.000000	100.190770
656.000000	100.193711
655.000000	100.183920
654.000000	100.180242
653.000000	100.178372
652.000000	100.184949
651.000000	100.189043
650.000000	100.176419
649.000000	100.158361
648.000000	100.157597
647.000000	100.176621
646.000000	100.178236
645.000000	100.167401
644.000000	100.167983
643.000000	100.169723
642.000000	100.149829
641.000000	100.170311
640.000000	100.191294
639.000000	100.183514
638.000000	100.175161
637.000000	100.163649
636.000000	100.158019
635.000000	100.169813
634.000000	100.167677
633.000000	100.175979
632.000000	100.182469
631.000000	100.174660
630.000000	100.175356
629.000000	100.195094
628.000000	100.176770
627.000000	100.167177
626.000000	100.157897
625.000000	100.154157
624.000000	100.173456
623.000000	100.184021
622.000000	100.174068
621.000000	100.148129
620.000000	100.163130
619.000000	100.172444
618.000000	100.162008
617.000000	100.170540
616.000000	100.168528
615.000000	100.177161
614.000000	100.169359
613.000000	100.159860
612.000000	100.172949
611.000000	100.178541
610.000000	100.186385
609.000000	100.196070
608.000000	100.179605
607.000000	100.157821
606.000000	100.172511
605.000000	100.155830
604.000000	100.166425
603.000000	100.168147
602.000000	100.184095
601.000000	100.180490
600.000000	100.175614
599.000000	100.150506
598.000000	100.155434
597.000000	100.164670
596.000000	100.166754
595.000000	100.165408
594.000000	100.198325
593.000000	100.187878
592.000000	100.178466
591.000000	100.184879
590.000000	100.168498
589.000000	100.167850
588.000000	100.170621
587.000000	100.166532
586.000000	100.184574
585.000000	100.198425
584.000000	100.185334
583.000000	100.176817
582.000000	100.188499
581.000000	100.176538
580.000000	100.165628
579.000000	100.174793
578.000000	100.175500
577.000000	100.171398
576.000000	100.169824
575.000000	100.177746
574.000000	100.179818
573.000000	100.166617
572.000000	100.158412
571.000000	100.204754
570.000000	100.194485
569.000000	100.197739
568.000000	100.174080
567.000000	100.171140
566.000000	100.171053
565.000000	100.166851
564.000000	100.176507
563.000000	100.183972
562.000000	100.170059
561.000000	100.151619
560.000000	100.173958
559.000000	100.168273
558.000000	100.161556
557.000000	100.172456
556.000000	100.148911
555.000000	100.160172
554.000000	100.179440
553.000000	100.167110
552.000000	100.177911
551.000000	100.158131
550.000000	100.158847
549.000000	100.143628
548.000000	100.158016
547.000000	100.178476
546.000000	100.155666
545.000000	100.154106
544.000000	100.170006
543.000000	100.180137
542.000000	100.173522
541.000000	100.171055
540.000000	100.142814
539.000000	100.164500
538.000000	100.156606
537.000000	100.154096
536.000000	100.172242
535.000000	100.185208
534.000000	100.167296
533.000000	100.163808
532.000000	100.169854
531.000000	100.161848
530.000000	100.159147
529.000000	100.148137
528.000000	100.181845
527.000000	100.194304
526.000000	100.157978
525.000000	100.161422
524.000000	100.160245
523.000000	100.161513
522.000000	100.168109
521.000000	100.160340
520.000000	100.166497
519.000000	100.173724
518.000000	100.157464
517.000000	100.155739
516.000000	100.157967
515.000000	100.171852
514.000000	100.160089
513.000000	100.163594
512.000000	100.165841
511.000000	100.165847
510.000000	100.155305
509.000000	100.154926
508.000000	100.153364
507.000000	100.152841
506.000000	100.156629
505.000000	100.158889
504.000000	100.140496
503.000000	100.140737
502.000000	100.157131
501.000000	100.169891
500.000000	100.151687
499.000000	100.152113
498.000000	100.178321
497.000000	100.154123
496.000000	100.187917
495.000000	100.152626
494.000000	100.162295
493.000000	100.159301
492.000000	100.127935
491.000000	100.135634
490.000000	100.129745
489.000000	100.180538
488.000000	100.183577
487.000000	100.151903
486.000000	100.180258
485.000000	100.166453
484.000000	100.180245
483.000000	100.134898
482.000000	100.149445
481.000000	100.160004
480.000000	100.160727
479.000000	100.158951
478.000000	100.160939
477.000000	100.139255
476.000000	100.142848
475.000000	100.140821
474.000000	100.144650
473.000000	100.168332
472.000000	100.154927
471.000000	100.167605
470.000000	100.162775
469.000000	100.137921
468.000000	100.141301
467.000000	100.139737
466.000000	100.146157
465.000000	100.161090
464.000000	100.165860
463.000000	100.141861
462.000000	100.142131
461.000000	100.161766
460.000000	100.146432
459.000000	100.136068
458.000000	100.146689
457.000000	100.131683
456.000000	100.144701
455.000000	100.163678
454.000000	100.158392
453.000000	100.152723
452.000000	100.146129
451.000000	100.161937
450.000000	100.164542
449.000000	100.138804
448.000000	100.158455
447.000000	100.134674
446.000000	100.157854
445.000000	100.157504
444.000000	100.148259
443.000000	100.107767
442.000000	100.137236
441.000000	100.178896
440.000000	100.158172
439.000000	100.153712
438.000000	100.164047
437.000000	100.163625
436.000000	100.139767
435.000000	100.159741
434.000000	100.139733
433.000000	100.136823
432.000000	100.132825
431.000000	100.127056
430.000000	100.135638
429.000000	100.153354
428.000000	100.164091
427.000000	100.140871
426.000000	100.139136
425.000000	100.153941
424.000000	100.158735
423.000000	100.154017
422.000000	100.145139
421.000000	100.148052
420.000000	100.129638
419.000000	100.125030
418.000000	100.151404
417.000000	100.170974
416.000000	100.155280
415.000000	100.149375
414.000000	100.133453
413.000000	100.140049
412.000000	100.142612
411.000000	100.131670
410.000000	100.103537
409.000000	100.111677
408.000000	100.122932
407.000000	100.129900
406.000000	100.131842
405.000000	100.113354
404.000000	100.112190
403.000000	100.150248
402.000000	100.157696
401.000000	100.136672
400.000000	100.142716
399.000000	100.131143
398.000000	100.141855
397.000000	100.148252
396.000000	100.146724
395.000000	100.140299
394.000000	100.130854
393.000000	100.132438
392.000000	100.129218
391.000000	100.139333
390.000000	100.144184
389.000000	100.154049
388.000000	100.172573
387.000000	100.145344
386.000000	100.118223
385.000000	100.127020
384.000000	100.133408
383.000000	100.120435
382.000000	100.097614
381.000000	100.095712
380.000000	100.104743
379.000000	100.109751
378.000000	100.142041
377.000000	100.154259
376.000000	100.137015
375.000000	100.172157
374.000000	100.184128
373.000000	100.154377
372.000000	100.120236
371.000000	100.101647
370.000000	100.095118
369.000000	100.124325
368.000000	100.171337
367.000000	100.147858
366.000000	100.095183
365.000000	100.123607
364.000000	100.153165
363.000000	100.139266
362.000000	100.127512
361.000000	100.092279
360.000000	100.119762
359.000000	100.140036
358.000000	100.110918
357.000000	100.139637
356.000000	100.124357
355.000000	100.101244
354.000000	100.093424
353.000000	100.090308
352.000000	100.104810
351.000000	100.101093
350.000000	100.066354
349.000000	100.061054
348.000000	100.100794
347.000000	100.134661
346.000000	100.135898
345.000000	100.095152
344.000000	100.112776
343.000000	100.119930
342.000000	100.122124
341.000000	100.067165
340.000000	100.040110
339.000000	100.056068
338.000000	100.080498
337.000000	100.134805
336.000000	100.118401
335.000000	100.087807
334.000000	100.055267
333.000000	100.103320
332.000000	100.106460
331.000000	100.097733
330.000000	100.128648
329.000000	100.139813
328.000000	100.100209
327.000000	100.119501
326.000000	100.110685
325.000000	100.089615
324.000000	100.030389
323.000000	100.018287
322.000000	100.094872
321.000000	100.079002
320.000000	100.046407
319.000000	100.050488
318.000000	100.041601
317.000000	100.073964
316.000000	100.045256
315.000000	100.023899
314.000000	100.068723
313.000000	100.042904
312.000000	100.049216
311.000000	100.022370
310.000000	100.029524
309.000000	100.021793
308.000000	100.027622
307.000000	100.075045
306.000000	100.074345
305.000000	100.024145
304.000000	100.013596
303.000000	100.045197
302.000000	100.060299
301.000000	100.057293
300.000000	100.050872
299.000000	100.005236
298.000000	100.030469
297.000000	100.060258
296.000000	100.029412
295.000000	100.036033
294.000000	100.000244
293.000000	99.987888
292.000000	100.008573
291.000000	100.003432
290.000000	99.999509
289.000000	99.977411
288.000000	100.004792
287.000000	99.988439
286.000000	99.967007
285.000000	99.991004
284.000000	99.977924
283.000000	99.982226
282.000000	99.939493
281.000000	99.944392
280.000000	99.958947
279.000000	99.970425
278.000000	99.937107
277.000000	99.959115
276.000000	99.933810
275.000000	99.914818
274.000000	99.941931
273.000000	99.927269
272.000000	99.934448
271.000000	99.903258
270.000000	99.920489
269.000000	99.910906
268.000000	99.921435
267.000000	99.895065
266.000000	99.912812
265.000000	99.910317
264.000000	99.886687
263.000000	99.869625
262.000000	99.902579
261.000000	99.872847
260.000000	99.902597
259.000000	99.883587
258.000000	99.879749
257.000000	99.821379
256.000000	99.839428
255.000000	99.847784
254.000000	99.851458
253.000000	99.823227
252.000000	99.820559
251.000000	99.824129
250.000000	99.862358
249.000000	99.809278
248.000000	99.835108
247.000000	99.820492
246.000000	99.801126
245.000000	99.792125
244.000000	99.790733
243.000000	99.793238
242.000000	99.774627
241.000000	99.770600
240.000000	99.762577
239.000000	99.754184
238.000000	99.754368
237.000000	99.713863
236.000000	99.741874
235.000000	99.713775
234.000000	99.714094
233.000000	99.712796
232.000000	99.713435
231.000000	99.698081
230.000000	99.705597
229.000000	99.675723
228.000000	99.666425
227.000000	99.663192
226.000000	99.638285
225.000000	99.617228
224.000000	99.608686
223.000000	99.587975
222.000000	99.602575
221.000000	99.574234
220.000000	99.554941
219.000000	99.555899
218.000000	99.518194
217.000000	99.488338
216.000000	99.459064
215.000000	99.421049
214.000000	99.434649
213.000000	99.405867
212.000000	99.429040
211.000000	99.408049
210.000000	99.362447
209.000000	99.313563
208.000000	99.316559
207.000000	99.342482
206.000000	99.296976
205.000000	99.232066
204.000000	99.227522
203.000000	99.252014
202.000000	99.180178
201.000000	99.073001
200.000000	99.127476
199.000000	99.116861
198.000000	99.047117
197.000000	98.921878
196.000000	98.872954
195.000000	98.756742
194.000000	98.520612
193.000000	98.384860
192.000000	98.131373
191.000000	97.789899
190.000000	97.084267
