PE UV       SUBTECH     SPECTRUM    ASCII       PEDS        4.00        
   -1
C2F6_6bar.Sample.Cycle1.ASC
26/05/13
19:11:31.00
26/05/13
19:11:31.00
Jinky Agarwala

190.000000
1
Lambda 850+
860L2410213
PerkinElmer UV WinLab 7.4.0.367 / 2.02.11 Lambda 800 UV/VIS, May 23 2018 11:23:04

0
0
1
0
0
UV/VIS
1
1
10
RBeamAtt,SBeamAtt,uv/vis detector
0
0
0
0
Fix
 
0
0.2
0
0
0
 
 
 
0
 
0
319.2
0
Front
100
 
S:100 R:100
 
0
0
0
 
0
 
 
 
0
 
 
0
0
0
0
0
 
 
 
 
0
0


0
0

0


#HDR
-1
-1
#GR
nm
%T
1.0
0.0
800.000000
-1.000000
611
8
100.164535
98.236701
#DATA
800.000000	100.112409
799.000000	100.121700
798.000000	100.115430
797.000000	100.113291
796.000000	100.148805
795.000000	100.164535
794.000000	100.093026
793.000000	100.058717
792.000000	100.062119
791.000000	100.126236
790.000000	100.084725
789.000000	100.103403
788.000000	100.047352
787.000000	100.061873
786.000000	100.055879
785.000000	100.097284
784.000000	100.057429
783.000000	100.057111
782.000000	100.137502
781.000000	100.096452
780.000000	100.110756
779.000000	100.095352
778.000000	100.098128
777.000000	100.069577
776.000000	100.122280
775.000000	100.118565
774.000000	100.103064
773.000000	100.115572
772.000000	100.112514
771.000000	100.111004
770.000000	100.107423
769.000000	100.122067
768.000000	100.110233
767.000000	100.080979
766.000000	100.093069
765.000000	100.096473
764.000000	100.094763
763.000000	100.069940
762.000000	100.079196
761.000000	100.088453
760.000000	100.124227
759.000000	100.099838
758.000000	100.071160
757.000000	100.128519
756.000000	100.117426
755.000000	100.086970
754.000000	100.116063
753.000000	100.096279
752.000000	100.085057
751.000000	100.091376
750.000000	100.072632
749.000000	100.101134
748.000000	100.096754
747.000000	100.068632
746.000000	100.085649
745.000000	100.099482
744.000000	100.115212
743.000000	100.107404
742.000000	100.089053
741.000000	100.056248
740.000000	100.094871
739.000000	100.052859
738.000000	100.091611
737.000000	100.102252
736.000000	100.108818
735.000000	100.102411
734.000000	100.069431
733.000000	100.057048
732.000000	100.106719
731.000000	100.112977
730.000000	100.096150
729.000000	100.102523
728.000000	100.108857
727.000000	100.086787
726.000000	100.087038
725.000000	100.114731
724.000000	100.094410
723.000000	100.096204
722.000000	100.082565
721.000000	100.094831
720.000000	100.089626
719.000000	100.053275
718.000000	100.104920
717.000000	100.113290
716.000000	100.094054
715.000000	100.097965
714.000000	100.102565
713.000000	100.098819
712.000000	100.086243
711.000000	100.091833
710.000000	100.104789
709.000000	100.109514
708.000000	100.095151
707.000000	100.094954
706.000000	100.109497
705.000000	100.122035
704.000000	100.129116
703.000000	100.090362
702.000000	100.079533
701.000000	100.055633
700.000000	100.065032
699.000000	100.084059
698.000000	100.086109
697.000000	100.090055
696.000000	100.090411
695.000000	100.087517
694.000000	100.092124
693.000000	100.091808
692.000000	100.077267
691.000000	100.097327
690.000000	100.087139
689.000000	100.100601
688.000000	100.104752
687.000000	100.098152
686.000000	100.094380
685.000000	100.091151
684.000000	100.080177
683.000000	100.063254
682.000000	100.074827
681.000000	100.077752
680.000000	100.089679
679.000000	100.103749
678.000000	100.096356
677.000000	100.091532
676.000000	100.098073
675.000000	100.123259
674.000000	100.117992
673.000000	100.096436
672.000000	100.103098
671.000000	100.110890
670.000000	100.097964
669.000000	100.083016
668.000000	100.085848
667.000000	100.106919
666.000000	100.107049
665.000000	100.093892
664.000000	100.088720
663.000000	100.089296
662.000000	100.101935
661.000000	100.099034
660.000000	100.099275
659.000000	100.099628
658.000000	100.090523
657.000000	100.100008
656.000000	100.092571
655.000000	100.081980
654.000000	100.094633
653.000000	100.104248
652.000000	100.094337
651.000000	100.094691
650.000000	100.088153
649.000000	100.071449
648.000000	100.070896
647.000000	100.097345
646.000000	100.099509
645.000000	100.074664
644.000000	100.081563
643.000000	100.102263
642.000000	100.087796
641.000000	100.089054
640.000000	100.110797
639.000000	100.097693
638.000000	100.094648
637.000000	100.101560
636.000000	100.093884
635.000000	100.092769
634.000000	100.082481
633.000000	100.090762
632.000000	100.099611
631.000000	100.093160
630.000000	100.082527
629.000000	100.091150
628.000000	100.083119
627.000000	100.081096
626.000000	100.082686
625.000000	100.081892
624.000000	100.088824
623.000000	100.081926
622.000000	100.080121
621.000000	100.078994
620.000000	100.089330
619.000000	100.071313
618.000000	100.067456
617.000000	100.067128
616.000000	100.069974
615.000000	100.078033
614.000000	100.078270
613.000000	100.079192
612.000000	100.112689
611.000000	100.114866
610.000000	100.088539
609.000000	100.092983
608.000000	100.086397
607.000000	100.075164
606.000000	100.071775
605.000000	100.084616
604.000000	100.088609
603.000000	100.087823
602.000000	100.100571
601.000000	100.099906
600.000000	100.095480
599.000000	100.098216
598.000000	100.093351
597.000000	100.095754
596.000000	100.090543
595.000000	100.093398
594.000000	100.096944
593.000000	100.082047
592.000000	100.087640
591.000000	100.098473
590.000000	100.098367
589.000000	100.079939
588.000000	100.075401
587.000000	100.076204
586.000000	100.080779
585.000000	100.095622
584.000000	100.102127
583.000000	100.090061
582.000000	100.099894
581.000000	100.082681
580.000000	100.090913
579.000000	100.098920
578.000000	100.084669
577.000000	100.066984
576.000000	100.079548
575.000000	100.085049
574.000000	100.077293
573.000000	100.104835
572.000000	100.084403
571.000000	100.098835
570.000000	100.105470
569.000000	100.114529
568.000000	100.079210
567.000000	100.087227
566.000000	100.093873
565.000000	100.086456
564.000000	100.110961
563.000000	100.096677
562.000000	100.082228
561.000000	100.082441
560.000000	100.094470
559.000000	100.079847
558.000000	100.077002
557.000000	100.082280
556.000000	100.080579
555.000000	100.082776
554.000000	100.101000
553.000000	100.095180
552.000000	100.082826
551.000000	100.095222
550.000000	100.085956
549.000000	100.088722
548.000000	100.082678
547.000000	100.091991
546.000000	100.082823
545.000000	100.085717
544.000000	100.098721
543.000000	100.083008
542.000000	100.081306
541.000000	100.087998
540.000000	100.075601
539.000000	100.098746
538.000000	100.096585
537.000000	100.079578
536.000000	100.094808
535.000000	100.097726
534.000000	100.087505
533.000000	100.083863
532.000000	100.075593
531.000000	100.082999
530.000000	100.091106
529.000000	100.088374
528.000000	100.106105
527.000000	100.088719
526.000000	100.094879
525.000000	100.098981
524.000000	100.079949
523.000000	100.079309
522.000000	100.087936
521.000000	100.094836
520.000000	100.095373
519.000000	100.111133
518.000000	100.077163
517.000000	100.098282
516.000000	100.088937
515.000000	100.097286
514.000000	100.087565
513.000000	100.082264
512.000000	100.083972
511.000000	100.089995
510.000000	100.094493
509.000000	100.089047
508.000000	100.070360
507.000000	100.094750
506.000000	100.079311
505.000000	100.071477
504.000000	100.074877
503.000000	100.084255
502.000000	100.081671
501.000000	100.093616
500.000000	100.064892
499.000000	100.076700
498.000000	100.088399
497.000000	100.066120
496.000000	100.106479
495.000000	100.081985
494.000000	100.088163
493.000000	100.071761
492.000000	100.082019
491.000000	100.058179
490.000000	100.074624
489.000000	100.067030
488.000000	100.105335
487.000000	100.110804
486.000000	100.088027
485.000000	100.080542
484.000000	100.092340
483.000000	100.060447
482.000000	100.050515
481.000000	100.067990
480.000000	100.080188
479.000000	100.084852
478.000000	100.083862
477.000000	100.077000
476.000000	100.076810
475.000000	100.063498
474.000000	100.065995
473.000000	100.083638
472.000000	100.067957
471.000000	100.079281
470.000000	100.076158
469.000000	100.073605
468.000000	100.078945
467.000000	100.097828
466.000000	100.060064
465.000000	100.071059
464.000000	100.071554
463.000000	100.086083
462.000000	100.082212
461.000000	100.094983
460.000000	100.083305
459.000000	100.094056
458.000000	100.059124
457.000000	100.052390
456.000000	100.078842
455.000000	100.051806
454.000000	100.064561
453.000000	100.067274
452.000000	100.077904
451.000000	100.072942
450.000000	100.073064
449.000000	100.080615
448.000000	100.102842
447.000000	100.051580
446.000000	100.080285
445.000000	100.099414
444.000000	100.090419
443.000000	100.056421
442.000000	100.065902
441.000000	100.073023
440.000000	100.115378
439.000000	100.093646
438.000000	100.068481
437.000000	100.064716
436.000000	100.067576
435.000000	100.110125
434.000000	100.070577
433.000000	100.055322
432.000000	100.048699
431.000000	100.058550
430.000000	100.070664
429.000000	100.059183
428.000000	100.077359
427.000000	100.062662
426.000000	100.048199
425.000000	100.088492
424.000000	100.094219
423.000000	100.062985
422.000000	100.071559
421.000000	100.085145
420.000000	100.079448
419.000000	100.048656
418.000000	100.059276
417.000000	100.085368
416.000000	100.069543
415.000000	100.091483
414.000000	100.066488
413.000000	100.064959
412.000000	100.073095
411.000000	100.085514
410.000000	100.065486
409.000000	100.050947
408.000000	100.059318
407.000000	100.057548
406.000000	100.056964
405.000000	100.058767
404.000000	100.064757
403.000000	100.066339
402.000000	100.062768
401.000000	100.052134
400.000000	100.080150
399.000000	100.057794
398.000000	100.080085
397.000000	100.066821
396.000000	100.066115
395.000000	100.086743
394.000000	100.075493
393.000000	100.055133
392.000000	100.037759
391.000000	100.058875
390.000000	100.094883
389.000000	100.090822
388.000000	100.083046
387.000000	100.079093
386.000000	100.068293
385.000000	100.072394
384.000000	100.086457
383.000000	100.068803
382.000000	100.043104
381.000000	100.027020
380.000000	100.040480
379.000000	100.026570
378.000000	100.035481
377.000000	100.056895
376.000000	100.016680
375.000000	100.042950
374.000000	100.094992
373.000000	100.085499
372.000000	100.047377
371.000000	100.051123
370.000000	100.070680
369.000000	100.098309
368.000000	100.102826
367.000000	100.044165
366.000000	99.994239
365.000000	100.043605
364.000000	100.083195
363.000000	100.075767
362.000000	100.057260
361.000000	100.049448
360.000000	100.076792
359.000000	100.089464
358.000000	100.095864
357.000000	100.110360
356.000000	100.077000
355.000000	100.047247
354.000000	100.039178
353.000000	100.025561
352.000000	100.027137
351.000000	100.028349
350.000000	100.032815
349.000000	100.036560
348.000000	100.066029
347.000000	100.094806
346.000000	100.104370
345.000000	100.048542
344.000000	100.031877
343.000000	100.047948
342.000000	100.047352
341.000000	100.007610
340.000000	100.014497
339.000000	100.026826
338.000000	100.045688
337.000000	100.073992
336.000000	100.096631
335.000000	100.090710
334.000000	100.059016
333.000000	100.087471
332.000000	100.055528
331.000000	100.002177
330.000000	100.031224
329.000000	100.043094
328.000000	100.018154
327.000000	100.081483
326.000000	100.072054
325.000000	100.058734
324.000000	100.001332
323.000000	100.017924
322.000000	100.061673
321.000000	100.023507
320.000000	100.005695
319.000000	100.015944
318.000000	100.004462
317.000000	100.027028
316.000000	100.002414
315.000000	99.963186
314.000000	100.004831
313.000000	100.014503
312.000000	100.032891
311.000000	99.998065
310.000000	100.036300
309.000000	100.027605
308.000000	100.023624
307.000000	100.034067
306.000000	100.004002
305.000000	100.021961
304.000000	99.996358
303.000000	100.007776
302.000000	100.042671
301.000000	100.012529
300.000000	99.975537
299.000000	100.001339
298.000000	100.013894
297.000000	100.031837
296.000000	99.993410
295.000000	100.022230
294.000000	100.004034
293.000000	99.979447
292.000000	99.994856
291.000000	99.974631
290.000000	99.993989
289.000000	99.993248
288.000000	99.967193
287.000000	99.973681
286.000000	100.001477
285.000000	100.006408
284.000000	99.949928
283.000000	99.984448
282.000000	99.966783
281.000000	99.977016
280.000000	99.979226
279.000000	99.974509
278.000000	99.950850
277.000000	99.962089
276.000000	99.974218
275.000000	99.962803
274.000000	99.971586
273.000000	99.964131
272.000000	99.965238
271.000000	99.932194
270.000000	99.931049
269.000000	99.923953
268.000000	99.939336
267.000000	99.927640
266.000000	99.952861
265.000000	99.937185
264.000000	99.930967
263.000000	99.936057
262.000000	99.925472
261.000000	99.923484
260.000000	99.938050
259.000000	99.946271
258.000000	99.961574
257.000000	99.923182
256.000000	99.933385
255.000000	99.949924
254.000000	99.921134
253.000000	99.914221
252.000000	99.898118
251.000000	99.883787
250.000000	99.910595
249.000000	99.907799
248.000000	99.917244
247.000000	99.905542
246.000000	99.890972
245.000000	99.911582
244.000000	99.886349
243.000000	99.871499
242.000000	99.871656
241.000000	99.891764
240.000000	99.868317
239.000000	99.878688
238.000000	99.863633
237.000000	99.843647
236.000000	99.874852
235.000000	99.863365
234.000000	99.849780
233.000000	99.849682
232.000000	99.853908
231.000000	99.855944
230.000000	99.844729
229.000000	99.826236
228.000000	99.834254
227.000000	99.835829
226.000000	99.852635
225.000000	99.807937
224.000000	99.806317
223.000000	99.777294
222.000000	99.810337
221.000000	99.802776
220.000000	99.780461
219.000000	99.788381
218.000000	99.760913
217.000000	99.770543
216.000000	99.742441
215.000000	99.709514
214.000000	99.726259
213.000000	99.722136
212.000000	99.736470
211.000000	99.728417
210.000000	99.697670
209.000000	99.656072
208.000000	99.654460
207.000000	99.693661
206.000000	99.622783
205.000000	99.596307
204.000000	99.620278
203.000000	99.609603
202.000000	99.584634
201.000000	99.534024
200.000000	99.566901
199.000000	99.545864
198.000000	99.505677
197.000000	99.457483
196.000000	99.415064
195.000000	99.356501
194.000000	99.208888
193.000000	99.091425
192.000000	98.925563
191.000000	98.708197
190.000000	98.236701
