Created as New Dataset,
nm,%T
800.0,100.10
799.0,100.08
798.0,100.14
797.0,100.14
796.0,100.09
795.0,100.13
794.0,100.12
793.0,100.08
792.0,100.07
791.0,100.11
790.0,100.08
789.0,100.08
788.0,100.07
787.0,100.08
786.0,100.09
785.0,100.09
784.0,100.03
783.0,100.05
782.0,100.13
781.0,100.16
780.0,100.11
779.0,100.12
778.0,100.14
777.0,100.13
776.0,100.14
775.0,100.10
774.0,100.12
773.0,100.15
772.0,100.09
771.0,100.07
770.0,100.09
769.0,100.15
768.0,100.11
767.0,100.11
766.0,100.09
765.0,100.06
764.0,100.11
763.0,100.09
762.0,100.09
761.0,100.06
760.0,100.11
759.0,100.13
758.0,100.13
757.0,100.10
756.0,100.09
755.0,100.09
754.0,100.09
753.0,100.11
752.0,100.09
751.0,100.08
750.0,100.06
749.0,100.11
748.0,100.12
747.0,100.09
746.0,100.09
745.0,100.09
744.0,100.14
743.0,100.10
742.0,100.05
741.0,100.06
740.0,100.10
739.0,100.08
738.0,100.08
737.0,100.09
736.0,100.11
735.0,100.09
734.0,100.08
733.0,100.09
732.0,100.09
731.0,100.12
730.0,100.10
729.0,100.10
728.0,100.09
727.0,100.09
726.0,100.09
725.0,100.10
724.0,100.07
723.0,100.06
722.0,100.07
721.0,100.09
720.0,100.09
719.0,100.06
718.0,100.08
717.0,100.09
716.0,100.07
715.0,100.05
714.0,100.08
713.0,100.09
712.0,100.09
711.0,100.11
710.0,100.09
709.0,100.09
708.0,100.09
707.0,100.10
706.0,100.09
705.0,100.09
704.0,100.12
703.0,100.11
702.0,100.09
701.0,100.08
700.0,100.07
699.0,100.07
698.0,100.09
697.0,100.12
696.0,100.12
695.0,100.10
694.0,100.09
693.0,100.09
692.0,100.08
691.0,100.09
690.0,100.07
689.0,100.09
688.0,100.08
687.0,100.08
686.0,100.10
685.0,100.09
684.0,100.08
683.0,100.07
682.0,100.10
681.0,100.09
680.0,100.11
679.0,100.11
678.0,100.10
677.0,100.08
676.0,100.09
675.0,100.09
674.0,100.09
673.0,100.08
672.0,100.10
671.0,100.11
670.0,100.10
669.0,100.09
668.0,100.09
667.0,100.11
666.0,100.11
665.0,100.11
664.0,100.09
663.0,100.08
662.0,100.10
661.0,100.11
660.0,100.09
659.0,100.09
658.0,100.11
657.0,100.12
656.0,100.10
655.0,100.08
654.0,100.07
653.0,100.08
652.0,100.10
651.0,100.09
650.0,100.09
649.0,100.09
648.0,100.10
647.0,100.10
646.0,100.09
645.0,100.09
644.0,100.09
643.0,100.10
642.0,100.08
641.0,100.07
640.0,100.09
639.0,100.08
638.0,100.07
637.0,100.08
636.0,100.08
635.0,100.09
634.0,100.08
633.0,100.10
632.0,100.11
631.0,100.09
630.0,100.09
629.0,100.09
628.0,100.08
627.0,100.08
626.0,100.08
625.0,100.07
624.0,100.07
623.0,100.07
622.0,100.08
621.0,100.07
620.0,100.10
619.0,100.10
618.0,100.06
617.0,100.06
616.0,100.07
615.0,100.07
614.0,100.08
613.0,100.08
612.0,100.08
611.0,100.08
610.0,100.09
609.0,100.10
608.0,100.08
607.0,100.08
606.0,100.09
605.0,100.08
604.0,100.08
603.0,100.08
602.0,100.10
601.0,100.10
600.0,100.08
599.0,100.08
598.0,100.09
597.0,100.09
596.0,100.09
595.0,100.07
594.0,100.08
593.0,100.08
592.0,100.09
591.0,100.09
590.0,100.07
589.0,100.07
588.0,100.08
587.0,100.07
586.0,100.07
585.0,100.09
584.0,100.09
583.0,100.09
582.0,100.09
581.0,100.08
580.0,100.08
579.0,100.09
578.0,100.10
577.0,100.09
576.0,100.09
575.0,100.10
574.0,100.07
573.0,100.08
572.0,100.08
571.0,100.10
570.0,100.10
569.0,100.12
568.0,100.10
567.0,100.09
566.0,100.08
565.0,100.08
564.0,100.11
563.0,100.12
562.0,100.09
561.0,100.09
560.0,100.09
559.0,100.09
558.0,100.08
557.0,100.08
556.0,100.08
555.0,100.08
554.0,100.09
553.0,100.07
552.0,100.09
551.0,100.08
550.0,100.08
549.0,100.06
548.0,100.09
547.0,100.10
546.0,100.07
545.0,100.09
544.0,100.09
543.0,100.08
542.0,100.07
541.0,100.07
540.0,100.06
539.0,100.09
538.0,100.09
537.0,100.07
536.0,100.08
535.0,100.10
534.0,100.09
533.0,100.10
532.0,100.08
531.0,100.09
530.0,100.09
529.0,100.08
528.0,100.11
527.0,100.09
526.0,100.10
525.0,100.10
524.0,100.09
523.0,100.09
522.0,100.10
521.0,100.09
520.0,100.08
519.0,100.08
518.0,100.08
517.0,100.09
516.0,100.10
515.0,100.10
514.0,100.08
513.0,100.08
512.0,100.08
511.0,100.07
510.0,100.07
509.0,100.08
508.0,100.07
507.0,100.09
506.0,100.07
505.0,100.09
504.0,100.07
503.0,100.09
502.0,100.06
501.0,100.09
500.0,100.07
499.0,100.07
498.0,100.08
497.0,100.09
496.0,100.09
495.0,100.08
494.0,100.09
493.0,100.07
492.0,100.05
491.0,100.09
490.0,100.05
489.0,100.09
488.0,100.10
487.0,100.09
486.0,100.10
485.0,100.09
484.0,100.08
483.0,100.05
482.0,100.04
481.0,100.06
480.0,100.07
479.0,100.08
478.0,100.08
477.0,100.08
476.0,100.07
475.0,100.05
474.0,100.07
473.0,100.08
472.0,100.06
471.0,100.08
470.0,100.08
469.0,100.07
468.0,100.08
467.0,100.07
466.0,100.07
465.0,100.10
464.0,100.08
463.0,100.07
462.0,100.05
461.0,100.07
460.0,100.09
459.0,100.07
458.0,100.09
457.0,100.07
456.0,100.08
455.0,100.06
454.0,100.07
453.0,100.08
452.0,100.10
451.0,100.07
450.0,100.07
449.0,100.08
448.0,100.11
447.0,100.06
446.0,100.09
445.0,100.11
444.0,100.11
443.0,100.06
442.0,100.03
441.0,100.06
440.0,100.08
439.0,100.09
438.0,100.09
437.0,100.07
436.0,100.07
435.0,100.08
434.0,100.06
433.0,100.06
432.0,100.05
431.0,100.06
430.0,100.05
429.0,100.06
428.0,100.06
427.0,100.08
426.0,100.06
425.0,100.06
424.0,100.07
423.0,100.05
422.0,100.06
421.0,100.07
420.0,100.06
419.0,100.05
418.0,100.08
417.0,100.08
416.0,100.07
415.0,100.08
414.0,100.08
413.0,100.07
412.0,100.08
411.0,100.09
410.0,100.08
409.0,100.06
408.0,100.05
407.0,100.08
406.0,100.07
405.0,100.06
404.0,100.06
403.0,100.07
402.0,100.04
401.0,100.02
400.0,100.05
399.0,100.08
398.0,100.08
397.0,100.08
396.0,100.09
395.0,100.09
394.0,100.08
393.0,100.09
392.0,100.07
391.0,100.06
390.0,100.07
389.0,100.08
388.0,100.09
387.0,100.08
386.0,100.07
385.0,100.07
384.0,100.06
383.0,100.04
382.0,100.02
381.0,100.03
380.0,100.05
379.0,100.04
378.0,100.04
377.0,100.06
376.0,100.03
375.0,100.05
374.0,100.13
373.0,100.11
372.0,100.08
371.0,100.07
370.0,100.07
369.0,100.08
368.0,100.11
367.0,100.08
366.0,100.02
365.0,100.05
364.0,100.10
363.0,100.10
362.0,100.07
361.0,100.06
360.0,100.09
359.0,100.09
358.0,100.08
357.0,100.09
356.0,100.05
355.0,100.04
354.0,100.04
353.0,100.04
352.0,100.04
351.0,100.05
350.0,100.02
349.0,100.02
348.0,100.05
347.0,100.07
346.0,100.08
345.0,100.01
344.0,100.00
343.0,100.04
342.0,100.03
341.0,100.04
340.0,100.04
339.0,100.04
338.0,100.06
337.0,100.07
336.0,100.11
335.0,100.07
334.0,100.04
333.0,100.09
332.0,100.05
331.0,100.04
330.0,100.08
329.0,100.06
328.0,100.03
327.0,100.07
326.0,100.05
325.0,100.03
324.0,99.99
323.0,100.00
322.0,100.04
321.0,100.04
320.0,100.05
319.0,100.01
318.0,100.00
317.0,100.04
316.0,100.01
315.0,100.00
314.0,100.02
313.0,100.04
312.0,100.04
311.0,99.99
310.0,100.00
309.0,100.00
308.0,100.01
307.0,100.04
306.0,100.03
305.0,100.04
304.0,100.03
303.0,100.04
302.0,99.99
301.0,100.01
300.0,100.00
299.0,99.97
298.0,100.00
297.0,99.98
296.0,99.97
295.0,100.01
294.0,100.00
293.0,99.97
292.0,99.98
291.0,99.99
290.0,99.98
289.0,99.97
288.0,99.97
287.0,99.96
286.0,100.00
285.0,100.01
284.0,99.99
283.0,100.00
282.0,99.97
281.0,99.97
280.0,99.99
279.0,99.97
278.0,99.95
277.0,99.99
276.0,99.98
275.0,99.93
274.0,99.97
273.0,99.96
272.0,99.95
271.0,99.94
270.0,99.95
269.0,99.92
268.0,99.93
267.0,99.93
266.0,99.97
265.0,99.95
264.0,99.93
263.0,99.92
262.0,99.94
261.0,99.92
260.0,99.92
259.0,99.93
258.0,99.92
257.0,99.90
256.0,99.94
255.0,99.91
254.0,99.93
253.0,99.88
252.0,99.90
251.0,99.91
250.0,99.91
249.0,99.89
248.0,99.91
247.0,99.89
246.0,99.91
245.0,99.90
244.0,99.88
243.0,99.88
242.0,99.90
241.0,99.89
240.0,99.86
239.0,99.86
238.0,99.88
237.0,99.84
236.0,99.87
235.0,99.87
234.0,99.85
233.0,99.82
232.0,99.86
231.0,99.84
230.0,99.81
229.0,99.84
228.0,99.83
227.0,99.84
226.0,99.82
225.0,99.81
224.0,99.79
223.0,99.79
222.0,99.81
221.0,99.78
220.0,99.81
219.0,99.79
218.0,99.74
217.0,99.77
216.0,99.73
215.0,99.69
214.0,99.70
213.0,99.72
212.0,99.71
211.0,99.73
210.0,99.70
209.0,99.65
208.0,99.63
207.0,99.65
206.0,99.62
205.0,99.59
204.0,99.63
203.0,99.62
202.0,99.58
201.0,99.54
200.0,99.56
199.0,99.53
198.0,99.49
197.0,99.45
196.0,99.39
195.0,99.33
194.0,99.17
193.0,99.09
192.0,98.91
191.0,98.71
190.0,98.23
