PE UV       SUBTECH     SPECTRUM    ASCII       PEDS        4.00        
   -1
C2F6_6bar.Sample.Cycle10.ASC
26/05/13
19:11:31.00
26/05/13
19:11:31.00
Jinky Agarwala

190.000000
1
Lambda 850+
860L2410213
PerkinElmer UV WinLab 7.4.0.367 / 2.02.11 Lambda 800 UV/VIS, May 23 2018 11:23:04

0
0
1
0
0
UV/VIS
1
1
10
RBeamAtt,SBeamAtt,uv/vis detector
0
0
0
0
Fix
 
0
0.2
0
0
0
 
 
 
0
 
0
319.2
0
Front
100
 
S:100 R:100
 
0
0
0
 
0
 
 
 
0
 
 
0
0
0
0
0
 
 
 
 
0
0


0
0

0


#HDR
-1
-1
#GR
nm
%T
1.0
0.0
800.000000
-1.000000
611
8
100.201107
98.286594
#DATA
800.000000	100.020023
799.000000	100.100582
798.000000	100.122508
797.000000	100.137256
796.000000	100.163511
795.000000	100.146992
794.000000	100.039868
793.000000	100.046190
792.000000	100.031931
791.000000	100.051018
790.000000	100.082762
789.000000	100.083660
788.000000	100.111396
787.000000	100.046596
786.000000	100.087639
785.000000	100.110495
784.000000	100.012774
783.000000	100.039093
782.000000	100.148322
781.000000	100.201107
780.000000	100.058275
779.000000	100.052706
778.000000	100.087954
777.000000	100.045181
776.000000	100.137606
775.000000	100.091414
774.000000	100.129569
773.000000	100.074820
772.000000	100.074937
771.000000	100.080322
770.000000	100.075525
769.000000	100.120422
768.000000	100.077218
767.000000	100.095682
766.000000	100.066838
765.000000	100.074193
764.000000	100.061601
763.000000	100.042271
762.000000	100.073154
761.000000	100.123065
760.000000	100.130493
759.000000	100.083785
758.000000	100.107344
757.000000	100.100350
756.000000	100.061409
755.000000	100.072218
754.000000	100.063317
753.000000	100.125912
752.000000	100.061699
751.000000	100.064481
750.000000	100.040008
749.000000	100.093965
748.000000	100.114847
747.000000	100.090700
746.000000	100.065009
745.000000	100.091422
744.000000	100.104718
743.000000	100.100001
742.000000	100.042538
741.000000	100.039893
740.000000	100.073752
739.000000	100.071215
738.000000	100.094377
737.000000	100.069607
736.000000	100.075719
735.000000	100.061779
734.000000	100.037982
733.000000	100.037773
732.000000	100.056961
731.000000	100.084262
730.000000	100.076742
729.000000	100.097641
728.000000	100.108413
727.000000	100.060152
726.000000	100.066278
725.000000	100.103180
724.000000	100.081859
723.000000	100.083540
722.000000	100.074675
721.000000	100.069261
720.000000	100.064050
719.000000	100.065176
718.000000	100.074768
717.000000	100.065437
716.000000	100.063111
715.000000	100.061785
714.000000	100.067374
713.000000	100.096814
712.000000	100.085240
711.000000	100.076453
710.000000	100.076920
709.000000	100.096466
708.000000	100.091247
707.000000	100.091830
706.000000	100.122110
705.000000	100.107074
704.000000	100.124313
703.000000	100.094942
702.000000	100.074729
701.000000	100.058649
700.000000	100.061009
699.000000	100.066844
698.000000	100.071124
697.000000	100.079539
696.000000	100.074634
695.000000	100.078340
694.000000	100.089550
693.000000	100.095055
692.000000	100.080514
691.000000	100.078960
690.000000	100.091843
689.000000	100.092087
688.000000	100.073046
687.000000	100.065771
686.000000	100.079023
685.000000	100.082518
684.000000	100.089485
683.000000	100.080638
682.000000	100.058897
681.000000	100.061595
680.000000	100.078006
679.000000	100.086233
678.000000	100.095120
677.000000	100.077493
676.000000	100.075605
675.000000	100.098652
674.000000	100.092034
673.000000	100.080813
672.000000	100.070156
671.000000	100.073327
670.000000	100.080644
669.000000	100.090328
668.000000	100.098225
667.000000	100.098478
666.000000	100.091740
665.000000	100.077005
664.000000	100.054718
663.000000	100.066775
662.000000	100.090671
661.000000	100.098922
660.000000	100.087218
659.000000	100.081483
658.000000	100.084661
657.000000	100.083997
656.000000	100.068554
655.000000	100.056157
654.000000	100.068352
653.000000	100.086196
652.000000	100.083729
651.000000	100.072119
650.000000	100.061177
649.000000	100.068627
648.000000	100.078234
647.000000	100.086391
646.000000	100.086972
645.000000	100.067886
644.000000	100.053660
643.000000	100.070737
642.000000	100.061355
641.000000	100.059219
640.000000	100.080836
639.000000	100.077227
638.000000	100.084132
637.000000	100.084143
636.000000	100.078274
635.000000	100.077609
634.000000	100.075466
633.000000	100.087593
632.000000	100.085461
631.000000	100.084217
630.000000	100.075169
629.000000	100.057407
628.000000	100.069643
627.000000	100.087552
626.000000	100.069434
625.000000	100.055614
624.000000	100.070810
623.000000	100.080566
622.000000	100.065162
621.000000	100.053721
620.000000	100.063710
619.000000	100.065191
618.000000	100.052378
617.000000	100.060438
616.000000	100.064871
615.000000	100.062154
614.000000	100.062843
613.000000	100.064897
612.000000	100.083410
611.000000	100.083993
610.000000	100.090468
609.000000	100.094913
608.000000	100.075838
607.000000	100.067784
606.000000	100.083473
605.000000	100.071327
604.000000	100.081793
603.000000	100.070895
602.000000	100.076593
601.000000	100.085698
600.000000	100.072292
599.000000	100.062181
598.000000	100.067654
597.000000	100.077786
596.000000	100.089861
595.000000	100.080770
594.000000	100.071342
593.000000	100.063953
592.000000	100.062714
591.000000	100.058743
590.000000	100.072067
589.000000	100.060239
588.000000	100.065378
587.000000	100.072559
586.000000	100.069386
585.000000	100.083997
584.000000	100.059612
583.000000	100.083221
582.000000	100.101719
581.000000	100.083365
580.000000	100.093422
579.000000	100.088652
578.000000	100.071090
577.000000	100.060024
576.000000	100.049190
575.000000	100.070436
574.000000	100.058684
573.000000	100.084508
572.000000	100.073552
571.000000	100.078268
570.000000	100.079645
569.000000	100.089726
568.000000	100.071895
567.000000	100.076710
566.000000	100.081867
565.000000	100.069988
564.000000	100.103182
563.000000	100.095761
562.000000	100.077424
561.000000	100.079583
560.000000	100.078687
559.000000	100.078245
558.000000	100.082151
557.000000	100.065000
556.000000	100.071308
555.000000	100.083349
554.000000	100.076036
553.000000	100.072502
552.000000	100.075609
551.000000	100.087316
550.000000	100.072433
549.000000	100.069350
548.000000	100.071899
547.000000	100.073639
546.000000	100.063436
545.000000	100.086290
544.000000	100.084946
543.000000	100.062571
542.000000	100.063736
541.000000	100.077544
540.000000	100.066639
539.000000	100.093458
538.000000	100.078303
537.000000	100.064858
536.000000	100.082957
535.000000	100.095194
534.000000	100.075531
533.000000	100.089046
532.000000	100.084812
531.000000	100.063978
530.000000	100.061237
529.000000	100.061608
528.000000	100.093982
527.000000	100.079824
526.000000	100.067952
525.000000	100.074351
524.000000	100.066065
523.000000	100.075720
522.000000	100.073106
521.000000	100.063069
520.000000	100.067991
519.000000	100.077572
518.000000	100.067750
517.000000	100.083394
516.000000	100.074153
515.000000	100.087149
514.000000	100.074273
513.000000	100.071412
512.000000	100.078249
511.000000	100.091046
510.000000	100.074612
509.000000	100.071027
508.000000	100.063921
507.000000	100.067578
506.000000	100.074156
505.000000	100.094443
504.000000	100.048863
503.000000	100.071833
502.000000	100.067610
501.000000	100.069128
500.000000	100.054467
499.000000	100.052929
498.000000	100.082779
497.000000	100.078641
496.000000	100.094661
495.000000	100.066898
494.000000	100.064544
493.000000	100.049204
492.000000	100.060988
491.000000	100.074885
490.000000	100.072989
489.000000	100.069599
488.000000	100.074739
487.000000	100.080213
486.000000	100.081840
485.000000	100.074589
484.000000	100.086270
483.000000	100.058814
482.000000	100.060198
481.000000	100.062159
480.000000	100.081005
479.000000	100.059957
478.000000	100.062341
477.000000	100.053595
476.000000	100.052456
475.000000	100.045456
474.000000	100.057438
473.000000	100.067685
472.000000	100.064201
471.000000	100.084096
470.000000	100.074512
469.000000	100.062200
468.000000	100.059297
467.000000	100.085467
466.000000	100.062184
465.000000	100.072944
464.000000	100.069904
463.000000	100.070989
462.000000	100.055083
461.000000	100.084128
460.000000	100.066431
459.000000	100.084143
458.000000	100.061012
457.000000	100.048732
456.000000	100.077426
455.000000	100.050862
454.000000	100.079904
453.000000	100.088990
452.000000	100.094429
451.000000	100.090057
450.000000	100.091478
449.000000	100.063264
448.000000	100.088083
447.000000	100.052288
446.000000	100.073201
445.000000	100.077572
444.000000	100.108480
443.000000	100.060671
442.000000	100.049840
441.000000	100.057426
440.000000	100.077549
439.000000	100.062076
438.000000	100.052514
437.000000	100.057026
436.000000	100.071955
435.000000	100.090587
434.000000	100.059090
433.000000	100.082331
432.000000	100.069434
431.000000	100.068743
430.000000	100.056437
429.000000	100.056099
428.000000	100.055765
427.000000	100.046759
426.000000	100.043450
425.000000	100.070556
424.000000	100.084001
423.000000	100.082713
422.000000	100.068825
421.000000	100.089069
420.000000	100.068625
419.000000	100.065430
418.000000	100.079868
417.000000	100.073819
416.000000	100.051204
415.000000	100.056582
414.000000	100.066488
413.000000	100.052563
412.000000	100.067013
411.000000	100.077046
410.000000	100.045924
409.000000	100.039015
408.000000	100.044399
407.000000	100.059458
406.000000	100.069026
405.000000	100.054826
404.000000	100.039547
403.000000	100.053430
402.000000	100.047823
401.000000	100.021523
400.000000	100.063522
399.000000	100.088187
398.000000	100.083796
397.000000	100.080832
396.000000	100.064798
395.000000	100.074762
394.000000	100.066026
393.000000	100.047702
392.000000	100.042913
391.000000	100.052520
390.000000	100.068254
389.000000	100.064067
388.000000	100.074286
387.000000	100.047288
386.000000	100.051850
385.000000	100.067832
384.000000	100.078292
383.000000	100.064240
382.000000	100.023533
381.000000	100.027501
380.000000	100.044804
379.000000	100.048114
378.000000	100.056555
377.000000	100.057728
376.000000	100.016442
375.000000	100.081724
374.000000	100.143384
373.000000	100.143375
372.000000	100.066997
371.000000	100.023825
370.000000	100.021443
369.000000	100.042920
368.000000	100.084229
367.000000	100.062408
366.000000	100.016924
365.000000	100.035196
364.000000	100.080430
363.000000	100.089477
362.000000	100.069771
361.000000	100.026228
360.000000	100.035026
359.000000	100.045033
358.000000	100.032998
357.000000	100.058072
356.000000	100.044585
355.000000	100.047006
354.000000	100.038816
353.000000	100.025682
352.000000	100.047520
351.000000	100.047772
350.000000	100.008807
349.000000	100.002534
348.000000	100.036817
347.000000	100.065217
346.000000	100.086129
345.000000	100.023909
344.000000	99.973194
343.000000	99.982608
342.000000	100.004107
341.000000	100.005194
340.000000	99.995409
339.000000	100.019576
338.000000	100.025745
337.000000	100.021158
336.000000	100.085626
335.000000	100.098934
334.000000	100.049946
333.000000	100.089044
332.000000	100.063997
331.000000	99.987662
330.000000	100.027230
329.000000	100.041278
328.000000	100.022995
327.000000	100.054968
326.000000	100.045291
325.000000	99.998910
324.000000	99.991888
323.000000	99.997941
322.000000	100.047376
321.000000	100.043378
320.000000	100.010057
319.000000	99.988042
318.000000	100.017846
317.000000	100.023891
316.000000	99.998069
315.000000	99.987085
314.000000	100.011836
313.000000	100.028280
312.000000	99.994317
311.000000	99.947522
310.000000	99.971444
309.000000	99.985955
308.000000	99.992368
307.000000	100.032249
306.000000	100.027167
305.000000	100.020991
304.000000	99.961762
303.000000	99.978738
302.000000	100.028447
301.000000	100.023112
300.000000	100.007911
299.000000	99.970534
298.000000	99.999025
297.000000	100.013906
296.000000	99.974127
295.000000	99.989862
294.000000	99.958072
293.000000	99.957548
292.000000	100.004286
291.000000	99.977082
290.000000	100.007361
289.000000	100.013873
288.000000	99.953923
287.000000	99.985241
286.000000	99.987443
285.000000	100.009735
284.000000	99.979897
283.000000	99.977043
282.000000	99.936035
281.000000	99.955514
280.000000	99.949426
279.000000	99.958670
278.000000	99.970287
277.000000	99.986000
276.000000	99.961079
275.000000	99.919778
274.000000	99.966126
273.000000	99.941170
272.000000	99.941400
271.000000	99.920148
270.000000	99.939124
269.000000	99.934764
268.000000	99.937471
267.000000	99.928759
266.000000	99.950498
265.000000	99.950619
264.000000	99.921887
263.000000	99.927846
262.000000	99.930822
261.000000	99.920996
260.000000	99.925486
259.000000	99.930724
258.000000	99.927501
257.000000	99.903915
256.000000	99.916856
255.000000	99.929670
254.000000	99.908341
253.000000	99.897710
252.000000	99.912141
251.000000	99.888996
250.000000	99.906999
249.000000	99.884625
248.000000	99.907086
247.000000	99.886353
246.000000	99.900749
245.000000	99.908490
244.000000	99.880172
243.000000	99.905198
242.000000	99.883122
241.000000	99.859626
240.000000	99.891801
239.000000	99.859288
238.000000	99.873076
237.000000	99.814997
236.000000	99.866044
235.000000	99.859698
234.000000	99.855765
233.000000	99.832220
232.000000	99.842304
231.000000	99.849468
230.000000	99.855855
229.000000	99.833701
228.000000	99.813796
227.000000	99.813743
226.000000	99.826824
225.000000	99.797349
224.000000	99.784235
223.000000	99.789660
222.000000	99.786908
221.000000	99.792834
220.000000	99.773982
219.000000	99.783259
218.000000	99.756404
217.000000	99.727089
216.000000	99.730980
215.000000	99.710019
214.000000	99.725752
213.000000	99.711963
212.000000	99.710309
211.000000	99.697558
210.000000	99.685335
209.000000	99.651946
208.000000	99.634264
207.000000	99.675465
206.000000	99.640529
205.000000	99.610725
204.000000	99.616329
203.000000	99.601930
202.000000	99.588094
201.000000	99.537237
200.000000	99.577129
199.000000	99.544108
198.000000	99.531687
197.000000	99.477948
196.000000	99.394328
195.000000	99.348783
194.000000	99.188509
193.000000	99.139805
192.000000	98.927831
191.000000	98.761784
190.000000	98.286594
