PE UV       SUBTECH     SPECTRUM    ASCII       PEDS        4.00        
   -1
C2F6_6bar.Sample.Cycle5.ASC
26/05/13
19:11:31.00
26/05/13
19:11:31.00
Jinky Agarwala

190.000000
1
Lambda 850+
860L2410213
PerkinElmer UV WinLab 7.4.0.367 / 2.02.11 Lambda 800 UV/VIS, May 23 2018 11:23:04

0
0
1
0
0
UV/VIS
1
1
10
RBeamAtt,SBeamAtt,uv/vis detector
0
0
0
0
Fix
 
0
0.2
0
0
0
 
 
 
0
 
0
319.2
0
Front
100
 
S:100 R:100
 
0
0
0
 
0
 
 
 
0
 
 
0
0
0
0
0
 
 
 
 
0
0


0
0

0


#HDR
-1
-1
#GR
nm
%T
1.0
0.0
800.000000
-1.000000
611
8
100.175709
98.269567
#DATA
800.000000	100.118068
799.000000	100.153812
798.000000	100.134922
797.000000	100.175709
796.000000	100.150657
795.000000	100.122475
794.000000	100.061872
793.000000	100.065145
792.000000	100.067241
791.000000	100.041970
790.000000	100.101735
789.000000	100.083660
788.000000	100.149146
787.000000	100.080315
786.000000	100.111322
785.000000	100.056121
784.000000	100.063215
783.000000	100.052415
782.000000	100.117718
781.000000	100.167097
780.000000	100.106710
779.000000	100.048660
778.000000	100.118366
777.000000	100.113555
776.000000	100.098306
775.000000	100.098968
774.000000	100.140303
773.000000	100.119296
772.000000	100.103421
771.000000	100.096978
770.000000	100.083088
769.000000	100.100023
768.000000	100.096084
767.000000	100.122675
766.000000	100.104922
765.000000	100.084400
764.000000	100.110465
763.000000	100.061595
762.000000	100.032733
761.000000	100.071092
760.000000	100.099272
759.000000	100.082135
758.000000	100.106794
757.000000	100.073282
756.000000	100.093105
755.000000	100.099080
754.000000	100.108134
753.000000	100.103659
752.000000	100.101032
751.000000	100.107028
750.000000	100.070207
749.000000	100.086355
748.000000	100.102270
747.000000	100.068190
746.000000	100.093154
745.000000	100.089213
744.000000	100.117974
743.000000	100.117239
742.000000	100.061652
741.000000	100.045197
740.000000	100.076958
739.000000	100.069335
738.000000	100.076453
737.000000	100.075029
736.000000	100.095313
735.000000	100.069086
734.000000	100.085266
733.000000	100.059706
732.000000	100.068376
731.000000	100.089916
730.000000	100.117221
729.000000	100.123937
728.000000	100.117623
727.000000	100.096221
726.000000	100.064502
725.000000	100.081078
724.000000	100.052203
723.000000	100.057656
722.000000	100.064674
721.000000	100.070817
720.000000	100.087402
719.000000	100.073295
718.000000	100.092903
717.000000	100.084578
716.000000	100.070457
715.000000	100.054882
714.000000	100.082074
713.000000	100.115196
712.000000	100.112874
711.000000	100.086038
710.000000	100.065215
709.000000	100.079515
708.000000	100.091470
707.000000	100.106558
706.000000	100.100121
705.000000	100.110200
704.000000	100.119399
703.000000	100.097734
702.000000	100.078974
701.000000	100.061107
700.000000	100.052964
699.000000	100.079699
698.000000	100.095055
697.000000	100.100011
696.000000	100.110776
695.000000	100.080242
694.000000	100.077796
693.000000	100.088897
692.000000	100.062597
691.000000	100.071792
690.000000	100.078851
689.000000	100.091751
688.000000	100.073494
687.000000	100.049076
686.000000	100.066245
685.000000	100.077809
684.000000	100.082084
683.000000	100.082208
682.000000	100.096366
681.000000	100.069898
680.000000	100.082383
679.000000	100.104535
678.000000	100.100960
677.000000	100.071541
676.000000	100.064146
675.000000	100.073596
674.000000	100.066413
673.000000	100.067775
672.000000	100.090393
671.000000	100.095145
670.000000	100.083455
669.000000	100.089091
668.000000	100.095637
667.000000	100.113784
666.000000	100.099394
665.000000	100.090853
664.000000	100.090071
663.000000	100.075896
662.000000	100.078056
661.000000	100.089570
660.000000	100.094430
659.000000	100.085427
658.000000	100.086803
657.000000	100.085012
656.000000	100.086031
655.000000	100.071831
654.000000	100.076699
653.000000	100.105828
652.000000	100.098850
651.000000	100.089274
650.000000	100.080252
649.000000	100.063096
648.000000	100.069993
647.000000	100.094522
646.000000	100.096799
645.000000	100.075003
644.000000	100.066651
643.000000	100.085991
642.000000	100.064293
641.000000	100.065322
640.000000	100.090899
639.000000	100.088534
638.000000	100.088994
637.000000	100.093191
636.000000	100.085513
635.000000	100.087452
634.000000	100.083046
633.000000	100.075711
632.000000	100.061917
631.000000	100.060107
630.000000	100.064074
629.000000	100.071334
628.000000	100.068285
627.000000	100.081096
626.000000	100.085858
625.000000	100.066261
624.000000	100.072623
623.000000	100.081019
622.000000	100.082501
621.000000	100.070721
620.000000	100.073799
619.000000	100.076415
618.000000	100.069950
617.000000	100.073818
616.000000	100.064530
615.000000	100.048430
614.000000	100.056377
613.000000	100.069095
612.000000	100.079325
611.000000	100.090235
610.000000	100.088539
609.000000	100.098773
608.000000	100.078563
607.000000	100.061766
606.000000	100.085858
605.000000	100.082344
604.000000	100.086905
603.000000	100.061692
602.000000	100.079320
601.000000	100.090927
600.000000	100.085932
599.000000	100.066955
598.000000	100.074022
597.000000	100.070508
596.000000	100.085425
595.000000	100.082363
594.000000	100.090117
593.000000	100.077495
592.000000	100.085591
591.000000	100.086861
590.000000	100.059885
589.000000	100.062175
588.000000	100.076540
587.000000	100.067319
586.000000	100.063347
585.000000	100.078641
584.000000	100.079673
583.000000	100.062245
582.000000	100.078114
581.000000	100.076066
580.000000	100.081445
579.000000	100.092531
578.000000	100.076453
577.000000	100.070180
576.000000	100.063798
575.000000	100.071349
574.000000	100.067931
573.000000	100.083480
572.000000	100.080519
571.000000	100.112089
570.000000	100.084216
569.000000	100.107328
568.000000	100.080468
567.000000	100.060248
566.000000	100.083583
565.000000	100.094233
564.000000	100.106614
563.000000	100.099423
562.000000	100.080970
561.000000	100.074094
560.000000	100.080402
559.000000	100.077559
558.000000	100.076888
557.000000	100.077931
556.000000	100.074856
555.000000	100.073961
554.000000	100.066417
553.000000	100.072617
552.000000	100.062893
551.000000	100.062336
550.000000	100.070828
549.000000	100.076342
548.000000	100.083251
547.000000	100.083388
546.000000	100.071122
545.000000	100.074012
544.000000	100.085405
543.000000	100.073478
542.000000	100.080502
541.000000	100.094661
540.000000	100.066065
539.000000	100.095757
538.000000	100.086582
537.000000	100.048644
536.000000	100.072372
535.000000	100.091395
534.000000	100.086238
533.000000	100.076490
532.000000	100.067642
531.000000	100.074008
530.000000	100.089261
529.000000	100.064377
528.000000	100.088325
527.000000	100.094148
526.000000	100.079740
525.000000	100.078630
524.000000	100.073123
523.000000	100.089845
522.000000	100.076003
521.000000	100.067707
520.000000	100.071936
519.000000	100.083495
518.000000	100.080649
517.000000	100.076299
516.000000	100.084862
515.000000	100.081673
514.000000	100.058765
513.000000	100.077480
512.000000	100.085840
511.000000	100.095137
510.000000	100.078121
509.000000	100.060964
508.000000	100.061580
507.000000	100.063479
506.000000	100.069470
505.000000	100.065266
504.000000	100.080384
503.000000	100.076521
502.000000	100.071359
501.000000	100.072760
500.000000	100.071217
499.000000	100.077169
498.000000	100.081140
497.000000	100.074545
496.000000	100.067631
495.000000	100.074383
494.000000	100.090735
493.000000	100.059139
492.000000	100.064727
491.000000	100.083180
490.000000	100.052085
489.000000	100.055820
488.000000	100.070535
487.000000	100.078812
486.000000	100.092697
485.000000	100.069219
484.000000	100.085336
483.000000	100.063015
482.000000	100.054832
481.000000	100.055862
480.000000	100.069100
479.000000	100.090812
478.000000	100.073452
477.000000	100.068106
476.000000	100.052456
475.000000	100.056469
474.000000	100.058258
473.000000	100.062875
472.000000	100.044483
471.000000	100.059314
470.000000	100.074277
469.000000	100.065492
468.000000	100.064474
467.000000	100.071222
466.000000	100.059829
465.000000	100.064695
464.000000	100.069904
463.000000	100.072404
462.000000	100.077140
461.000000	100.087078
460.000000	100.076579
459.000000	100.077416
458.000000	100.060540
457.000000	100.052036
456.000000	100.077544
455.000000	100.057352
454.000000	100.080612
453.000000	100.050514
452.000000	100.074363
451.000000	100.070936
450.000000	100.080973
449.000000	100.065271
448.000000	100.092334
447.000000	100.069049
446.000000	100.086070
445.000000	100.088198
444.000000	100.097738
443.000000	100.061851
442.000000	100.050076
441.000000	100.074205
440.000000	100.115970
439.000000	100.067633
438.000000	100.065169
437.000000	100.082936
436.000000	100.080121
435.000000	100.088929
434.000000	100.051038
433.000000	100.029852
432.000000	100.037561
431.000000	100.054046
430.000000	100.081572
429.000000	100.051592
428.000000	100.059443
427.000000	100.068833
426.000000	100.056153
425.000000	100.077089
424.000000	100.068437
423.000000	100.063936
422.000000	100.048261
421.000000	100.067188
420.000000	100.053282
419.000000	100.045206
418.000000	100.067370
417.000000	100.061675
416.000000	100.049061
415.000000	100.047886
414.000000	100.040155
413.000000	100.048749
412.000000	100.081442
411.000000	100.078716
410.000000	100.083378
409.000000	100.063713
408.000000	100.060392
407.000000	100.064114
406.000000	100.041320
405.000000	100.042523
404.000000	100.063084
403.000000	100.073989
402.000000	100.044117
401.000000	100.033002
400.000000	100.077519
399.000000	100.064854
398.000000	100.055904
397.000000	100.073288
396.000000	100.063361
395.000000	100.063740
394.000000	100.055361
393.000000	100.065919
392.000000	100.046389
391.000000	100.069427
390.000000	100.082048
389.000000	100.059148
388.000000	100.072966
387.000000	100.047768
386.000000	100.054251
385.000000	100.077797
384.000000	100.066404
383.000000	100.039865
382.000000	100.032298
381.000000	100.024859
380.000000	100.036997
379.000000	100.051584
378.000000	100.036790
377.000000	100.018449
376.000000	99.986537
375.000000	100.028395
374.000000	100.097262
373.000000	100.068519
372.000000	100.042950
371.000000	100.057348
370.000000	100.054148
369.000000	100.069416
368.000000	100.074990
367.000000	100.049686
366.000000	100.021005
365.000000	100.048290
364.000000	100.085479
363.000000	100.106434
362.000000	100.067485
361.000000	100.019491
360.000000	100.043813
359.000000	100.048404
358.000000	100.043958
357.000000	100.084457
356.000000	100.071096
355.000000	100.040015
354.000000	100.006268
353.000000	100.012901
352.000000	100.042093
351.000000	100.026540
350.000000	100.011099
349.000000	100.021960
348.000000	100.053717
347.000000	100.107367
346.000000	100.110651
345.000000	100.040935
344.000000	100.000483
343.000000	100.001208
342.000000	100.035393
341.000000	100.053032
340.000000	100.034915
339.000000	100.033230
338.000000	100.036623
337.000000	100.051262
336.000000	100.095906
335.000000	100.098692
334.000000	100.065062
333.000000	100.071501
332.000000	100.067626
331.000000	100.029513
330.000000	100.043084
329.000000	100.063430
328.000000	100.037639
327.000000	100.067802
326.000000	100.029790
325.000000	100.022888
324.000000	100.010897
323.000000	100.015865
322.000000	100.042165
321.000000	100.006543
320.000000	100.003999
319.000000	99.999275
318.000000	100.010249
317.000000	100.023167
316.000000	100.012792
315.000000	99.991310
314.000000	100.003865
313.000000	100.018491
312.000000	100.035310
311.000000	99.965418
310.000000	99.984875
309.000000	100.006901
308.000000	100.028955
307.000000	100.032976
306.000000	100.025226
305.000000	100.010192
304.000000	99.980820
303.000000	100.007897
302.000000	100.013616
301.000000	99.996108
300.000000	99.965558
299.000000	99.967490
298.000000	100.004388
297.000000	100.006099
296.000000	99.993410
295.000000	99.999511
294.000000	100.003423
293.000000	99.979080
292.000000	99.968281
291.000000	99.933943
290.000000	99.981231
289.000000	99.977533
288.000000	99.957609
287.000000	99.954248
286.000000	99.954942
285.000000	99.998398
284.000000	99.990134
283.000000	99.984942
282.000000	99.972093
281.000000	99.982206
280.000000	99.962286
279.000000	99.969435
278.000000	99.956916
277.000000	99.957009
276.000000	99.945338
275.000000	99.916306
274.000000	99.949996
273.000000	99.936205
272.000000	99.937676
271.000000	99.924370
270.000000	99.913656
269.000000	99.931657
268.000000	99.948162
267.000000	99.940073
266.000000	99.931593
265.000000	99.920393
264.000000	99.934947
263.000000	99.911922
262.000000	99.933808
261.000000	99.959689
260.000000	99.925486
259.000000	99.921521
258.000000	99.931729
257.000000	99.898197
256.000000	99.906789
255.000000	99.931907
254.000000	99.891574
253.000000	99.900441
252.000000	99.893651
251.000000	99.883042
250.000000	99.898443
249.000000	99.900487
248.000000	99.923686
247.000000	99.871250
246.000000	99.913867
245.000000	99.912324
244.000000	99.877948
243.000000	99.900878
242.000000	99.884848
241.000000	99.860981
240.000000	99.844710
239.000000	99.866287
238.000000	99.859341
237.000000	99.824180
236.000000	99.877543
235.000000	99.849799
234.000000	99.833293
233.000000	99.837715
232.000000	99.857451
231.000000	99.828941
230.000000	99.821500
229.000000	99.825625
228.000000	99.824576
227.000000	99.840982
226.000000	99.806299
225.000000	99.774449
224.000000	99.765853
223.000000	99.802025
222.000000	99.801040
221.000000	99.774814
220.000000	99.779340
219.000000	99.771016
218.000000	99.725094
217.000000	99.726586
216.000000	99.744960
215.000000	99.706609
214.000000	99.711431
213.000000	99.708783
212.000000	99.725878
211.000000	99.715869
210.000000	99.677497
209.000000	99.636858
208.000000	99.622483
207.000000	99.675335
206.000000	99.633613
205.000000	99.602860
204.000000	99.595526
203.000000	99.578911
202.000000	99.592617
201.000000	99.516488
200.000000	99.564344
199.000000	99.536406
198.000000	99.494297
197.000000	99.423330
196.000000	99.387958
195.000000	99.297324
194.000000	99.147753
193.000000	99.079700
192.000000	98.920494
191.000000	98.721394
190.000000	98.269567
