PE UV       SUBTECH     SPECTRUM    ASCII       PEDS        4.00        
   -1
C2F6_3bar.Sample.Cycle6.ASC
26/05/13
18:26:53.00
26/05/13
18:26:53.00
Jinky Agarwala

190.000000
1
Lambda 850+
860L2410213
PerkinElmer UV WinLab 7.4.0.367 / 2.02.11 Lambda 800 UV/VIS, May 23 2018 11:23:04

0
0
1
0
0
UV/VIS
1
1
10
RBeamAtt,SBeamAtt,uv/vis detector
0
0
0
0
Fix
 
0
0.2
0
0
0
 
 
 
0
 
0
319.2
0
Front
100
 
S:100 R:100
 
0
0
0
 
0
 
 
 
0
 
 
0
0
0
0
0
 
 
 
 
0
0


0
0

0


#HDR
-1
-1
#GR
nm
%T
1.0
0.0
800.000000
-1.000000
611
8
100.104031
99.265589
#DATA
800.000000	99.995756
799.000000	100.092418
798.000000	100.077752
797.000000	100.104031
796.000000	100.071134
795.000000	100.034433
794.000000	99.958933
793.000000	100.009369
792.000000	100.000763
791.000000	100.021148
790.000000	100.031731
789.000000	100.008617
788.000000	100.057280
787.000000	99.996399
786.000000	100.002292
785.000000	100.049243
784.000000	99.973797
783.000000	99.967786
782.000000	100.043611
781.000000	100.071957
780.000000	100.020555
779.000000	100.013997
778.000000	100.032272
777.000000	100.014550
776.000000	100.011057
775.000000	100.003394
774.000000	100.068673
773.000000	100.053459
772.000000	100.024212
771.000000	100.033531
770.000000	100.040119
769.000000	100.040579
768.000000	100.010859
767.000000	100.017556
766.000000	100.020633
765.000000	100.021951
764.000000	100.043703
763.000000	99.987154
762.000000	100.023506
761.000000	100.003846
760.000000	100.052439
759.000000	100.023310
758.000000	100.018697
757.000000	100.022227
756.000000	100.033566
755.000000	99.999450
754.000000	100.031603
753.000000	99.992730
752.000000	100.036579
751.000000	100.027556
750.000000	99.953489
749.000000	100.020734
748.000000	100.021072
747.000000	100.019310
746.000000	100.029249
745.000000	100.035774
744.000000	100.041202
743.000000	100.035691
742.000000	99.985084
741.000000	99.983424
740.000000	100.019240
739.000000	100.008515
738.000000	100.009847
737.000000	99.994688
736.000000	99.995904
735.000000	99.973761
734.000000	99.986601
733.000000	99.999889
732.000000	100.002770
731.000000	100.031265
730.000000	100.009205
729.000000	100.027295
728.000000	100.027852
727.000000	100.012541
726.000000	100.023425
725.000000	100.037651
724.000000	100.006886
723.000000	100.017997
722.000000	99.979664
721.000000	99.995108
720.000000	100.002224
719.000000	99.983650
718.000000	99.990320
717.000000	100.011908
716.000000	100.013357
715.000000	99.986419
714.000000	99.999555
713.000000	100.001003
712.000000	100.000446
711.000000	99.978602
710.000000	100.000000
709.000000	100.043717
708.000000	100.019409
707.000000	100.022204
706.000000	100.014734
705.000000	100.013510
704.000000	100.038087
703.000000	100.005585
702.000000	99.983691
701.000000	99.993521
700.000000	99.979999
699.000000	99.992511
698.000000	100.004138
697.000000	100.021479
696.000000	100.033792
695.000000	100.020144
694.000000	100.013768
693.000000	100.021832
692.000000	100.013662
691.000000	100.012096
690.000000	100.019153
689.000000	100.036521
688.000000	99.994174
687.000000	99.972549
686.000000	99.992266
685.000000	99.995515
684.000000	100.001009
683.000000	99.992149
682.000000	100.004375
681.000000	99.991361
680.000000	99.994949
679.000000	100.014821
678.000000	100.008198
677.000000	100.005503
676.000000	100.011122
675.000000	100.022135
674.000000	100.002135
673.000000	99.990446
672.000000	100.014841
671.000000	100.031378
670.000000	100.015409
669.000000	100.011024
668.000000	100.005513
667.000000	100.028924
666.000000	100.030617
665.000000	100.017112
664.000000	100.020941
663.000000	100.013738
662.000000	100.018359
661.000000	100.025012
660.000000	100.017466
659.000000	100.010143
658.000000	100.025816
657.000000	100.028525
656.000000	99.995828
655.000000	99.983085
654.000000	99.993232
653.000000	99.999436
652.000000	100.002370
651.000000	100.006772
650.000000	100.005305
649.000000	99.996162
648.000000	100.003725
647.000000	100.009373
646.000000	100.004066
645.000000	99.998193
644.000000	99.998193
643.000000	100.005198
642.000000	99.997288
641.000000	100.009154
640.000000	100.015602
639.000000	100.004523
638.000000	100.007576
637.000000	100.010744
636.000000	100.016854
635.000000	100.022400
634.000000	100.009957
633.000000	100.027387
632.000000	100.035769
631.000000	100.021168
630.000000	100.009056
629.000000	100.012568
628.000000	99.998528
627.000000	100.004870
626.000000	99.991505
625.000000	99.987654
624.000000	100.002832
623.000000	100.010878
622.000000	100.018699
621.000000	100.001133
620.000000	100.010543
619.000000	100.013378
618.000000	99.989456
617.000000	100.000680
616.000000	100.000794
615.000000	99.991494
614.000000	99.992173
613.000000	99.988995
612.000000	100.000113
611.000000	100.004086
610.000000	100.001249
609.000000	100.025204
608.000000	100.027588
607.000000	100.014079
606.000000	100.008745
605.000000	100.005225
604.000000	100.010906
603.000000	100.005113
602.000000	100.016364
601.000000	100.011366
600.000000	100.002273
599.000000	99.994089
598.000000	100.005230
597.000000	100.023313
596.000000	100.017972
595.000000	100.021842
594.000000	100.017978
593.000000	100.011266
592.000000	100.012520
591.000000	100.008310
590.000000	100.004782
589.000000	99.997495
588.000000	100.003075
587.000000	99.981889
586.000000	99.993620
585.000000	100.027695
584.000000	100.002394
583.000000	100.006384
582.000000	100.008667
581.000000	99.996009
580.000000	100.012433
579.000000	100.017457
578.000000	100.015405
577.000000	100.000571
576.000000	99.997717
575.000000	100.007763
574.000000	100.009134
573.000000	100.005710
572.000000	99.998515
571.000000	100.026166
570.000000	100.018054
569.000000	100.031661
568.000000	100.006287
567.000000	100.006516
566.000000	99.995083
565.000000	100.010407
564.000000	100.035805
563.000000	100.039586
562.000000	100.006290
561.000000	100.008461
560.000000	100.010980
559.000000	100.005834
558.000000	100.013501
557.000000	100.004921
556.000000	100.005608
555.000000	100.015571
554.000000	100.016146
553.000000	100.024396
552.000000	100.009738
551.000000	100.008823
550.000000	99.996676
549.000000	99.985213
548.000000	100.000000
547.000000	100.012158
546.000000	100.003900
545.000000	99.998394
544.000000	100.035471
543.000000	100.006315
542.000000	99.982889
541.000000	100.011143
540.000000	100.005515
539.000000	100.024485
538.000000	100.022077
537.000000	99.985280
536.000000	100.017949
535.000000	100.006101
534.000000	100.014738
533.000000	100.003571
532.000000	100.013252
531.000000	100.010836
530.000000	100.011878
529.000000	99.995501
528.000000	100.012816
527.000000	100.035118
526.000000	100.004854
525.000000	100.011679
524.000000	100.024066
523.000000	100.017714
522.000000	100.005909
521.000000	100.016231
520.000000	100.009630
519.000000	100.018929
518.000000	100.013480
517.000000	100.020471
516.000000	100.010593
515.000000	100.032739
514.000000	100.004314
513.000000	100.000700
512.000000	100.001752
511.000000	100.025011
510.000000	100.014735
509.000000	100.002223
508.000000	99.999649
507.000000	99.999063
506.000000	100.008786
505.000000	100.017928
504.000000	100.006093
503.000000	99.996602
502.000000	100.005156
501.000000	100.009139
500.000000	100.013470
499.000000	99.979742
498.000000	100.012177
497.000000	99.988766
496.000000	100.027497
495.000000	100.012046
494.000000	99.999532
493.000000	100.003857
492.000000	99.981774
491.000000	100.013552
490.000000	99.998248
489.000000	100.007474
488.000000	100.008525
487.000000	100.011559
486.000000	100.029304
485.000000	100.018443
484.000000	100.022647
483.000000	99.985997
482.000000	100.007350
481.000000	99.996501
480.000000	100.013423
479.000000	100.015544
478.000000	100.026550
477.000000	99.994266
476.000000	100.007728
475.000000	100.003632
474.000000	100.001524
473.000000	100.016188
472.000000	100.019014
471.000000	100.016678
470.000000	100.018804
469.000000	100.008231
468.000000	100.006236
467.000000	100.002472
466.000000	100.010129
465.000000	100.005774
464.000000	100.011199
463.000000	100.000590
462.000000	100.008375
461.000000	100.021828
460.000000	100.013215
459.000000	100.018528
458.000000	99.991149
457.000000	99.978053
456.000000	100.027146
455.000000	100.003186
454.000000	100.006964
453.000000	100.006963
452.000000	100.009797
451.000000	100.002125
450.000000	100.017587
449.000000	100.005783
448.000000	100.028928
447.000000	99.987135
446.000000	100.007792
445.000000	100.021843
444.000000	100.005076
443.000000	99.983711
442.000000	100.001063
441.000000	100.024696
440.000000	100.051187
439.000000	100.013361
438.000000	99.998936
437.000000	99.992073
436.000000	100.012308
435.000000	100.037893
434.000000	99.992540
433.000000	100.007582
432.000000	99.993720
431.000000	99.996326
430.000000	100.001778
429.000000	99.993358
428.000000	100.013882
427.000000	99.994185
426.000000	99.983973
425.000000	100.011165
424.000000	100.011763
423.000000	100.029472
422.000000	99.987638
421.000000	100.006303
420.000000	99.986323
419.000000	99.991792
418.000000	100.036899
417.000000	100.026432
416.000000	100.009288
415.000000	99.995950
414.000000	99.978433
413.000000	99.993087
412.000000	100.033984
411.000000	100.025284
410.000000	100.017892
409.000000	100.004534
408.000000	99.999284
407.000000	99.998209
406.000000	99.995581
405.000000	99.983517
404.000000	100.003704
403.000000	100.001793
402.000000	99.989120
401.000000	99.993304
400.000000	100.016509
399.000000	100.005863
398.000000	100.033638
397.000000	100.031016
396.000000	100.019643
395.000000	100.011382
394.000000	100.001198
393.000000	100.009468
392.000000	99.985736
391.000000	99.993525
390.000000	100.021592
389.000000	100.015837
388.000000	100.026042
387.000000	100.010322
386.000000	100.000000
385.000000	100.030254
384.000000	100.010927
383.000000	99.984871
382.000000	99.967582
381.000000	99.966975
380.000000	99.984505
379.000000	99.986116
378.000000	99.957971
377.000000	99.997858
376.000000	100.018825
375.000000	100.040444
374.000000	100.083282
373.000000	100.063616
372.000000	100.028235
371.000000	100.016402
370.000000	99.996167
369.000000	99.997482
368.000000	100.009839
367.000000	99.987638
366.000000	99.941426
365.000000	99.972852
364.000000	100.043761
363.000000	100.033313
362.000000	100.006496
361.000000	100.002406
360.000000	100.000241
359.000000	100.005659
358.000000	100.002047
357.000000	100.001325
356.000000	99.974695
355.000000	99.960226
354.000000	99.968658
353.000000	99.978538
352.000000	99.982512
351.000000	99.969479
350.000000	99.967064
349.000000	99.979850
348.000000	100.005070
347.000000	100.042391
346.000000	100.043850
345.000000	99.985148
344.000000	99.990340
343.000000	99.995531
342.000000	99.970405
341.000000	99.980430
340.000000	100.020055
339.000000	100.014621
338.000000	99.989364
337.000000	100.027928
336.000000	100.054907
335.000000	100.024794
334.000000	99.996735
333.000000	100.035448
332.000000	100.001694
331.000000	99.974720
330.000000	100.009561
329.000000	100.035226
328.000000	99.988382
327.000000	100.017919
326.000000	99.994914
325.000000	99.970936
324.000000	99.971669
323.000000	99.991644
322.000000	100.006906
321.000000	100.019387
320.000000	100.022053
319.000000	100.014615
318.000000	99.989871
317.000000	100.004706
316.000000	99.964760
315.000000	99.931442
314.000000	99.970892
313.000000	99.990694
312.000000	99.983796
311.000000	99.943048
310.000000	99.973501
309.000000	99.967068
308.000000	99.998183
307.000000	100.008729
306.000000	99.982536
305.000000	99.954621
304.000000	99.941853
303.000000	99.981775
302.000000	99.968513
301.000000	99.974942
300.000000	99.986369
299.000000	99.959819
298.000000	99.983668
297.000000	99.972920
296.000000	99.982670
295.000000	99.965677
294.000000	99.979097
293.000000	99.976633
292.000000	99.980773
291.000000	99.975366
290.000000	99.960499
289.000000	99.971763
288.000000	99.964367
287.000000	99.969376
286.000000	99.973408
285.000000	99.990511
284.000000	99.980637
283.000000	99.998519
282.000000	99.960485
281.000000	99.971208
280.000000	99.936566
279.000000	99.967456
278.000000	99.973630
277.000000	99.977699
276.000000	99.967401
275.000000	99.936889
274.000000	99.954587
273.000000	99.962642
272.000000	99.954809
271.000000	99.941632
270.000000	99.946206
269.000000	99.923083
268.000000	99.932872
267.000000	99.937462
266.000000	99.953110
265.000000	99.946763
264.000000	99.927111
263.000000	99.937301
262.000000	99.944633
261.000000	99.965039
260.000000	99.965791
259.000000	99.962564
258.000000	99.954735
257.000000	99.909757
256.000000	99.938481
255.000000	99.961480
254.000000	99.940385
253.000000	99.928745
252.000000	99.942668
251.000000	99.923723
250.000000	99.946927
249.000000	99.911517
248.000000	99.926907
247.000000	99.919160
246.000000	99.958295
245.000000	99.945094
244.000000	99.931933
243.000000	99.940008
242.000000	99.934164
241.000000	99.934246
240.000000	99.913318
239.000000	99.927802
238.000000	99.941382
237.000000	99.910498
236.000000	99.956694
235.000000	99.934127
234.000000	99.926966
233.000000	99.927100
232.000000	99.913518
231.000000	99.921680
230.000000	99.920897
229.000000	99.929516
228.000000	99.915840
227.000000	99.930798
226.000000	99.909172
225.000000	99.911971
224.000000	99.896620
223.000000	99.906639
222.000000	99.900458
221.000000	99.913007
220.000000	99.908048
219.000000	99.915552
218.000000	99.891039
217.000000	99.864486
216.000000	99.866624
215.000000	99.867892
214.000000	99.883026
213.000000	99.897756
212.000000	99.902245
211.000000	99.885656
210.000000	99.887959
209.000000	99.856213
208.000000	99.865357
207.000000	99.882637
206.000000	99.857386
205.000000	99.863164
204.000000	99.852930
203.000000	99.848127
202.000000	99.835557
201.000000	99.831065
200.000000	99.851013
199.000000	99.823264
198.000000	99.849630
197.000000	99.809448
196.000000	99.782885
195.000000	99.760313
194.000000	99.698508
193.000000	99.665248
192.000000	99.559688
191.000000	99.474801
190.000000	99.265589
