PE UV       SUBTECH     SPECTRUM    ASCII       PEDS        4.00        
   -1
C2F6_6bar.Sample.Cycle6.ASC
26/05/13
19:11:31.00
26/05/13
19:11:31.00
Jinky Agarwala

190.000000
1
Lambda 850+
860L2410213
PerkinElmer UV WinLab 7.4.0.367 / 2.02.11 Lambda 800 UV/VIS, May 23 2018 11:23:04

0
0
1
0
0
UV/VIS
1
1
10
RBeamAtt,SBeamAtt,uv/vis detector
0
0
0
0
Fix
 
0
0.2
0
0
0
 
 
 
0
 
0
319.2
0
Front
100
 
S:100 R:100
 
0
0
0
 
0
 
 
 
0
 
 
0
0
0
0
0
 
 
 
 
0
0


0
0

0


#HDR
-1
-1
#GR
nm
%T
1.0
0.0
800.000000
-1.000000
611
8
100.169766
98.195123
#DATA
800.000000	100.047771
799.000000	100.094922
798.000000	100.105084
797.000000	100.144772
796.000000	100.089000
795.000000	100.169766
794.000000	100.073964
793.000000	100.029086
792.000000	100.068985
791.000000	100.059957
790.000000	100.077092
789.000000	100.101330
788.000000	100.099722
787.000000	100.069185
786.000000	100.081200
785.000000	100.059833
784.000000	100.011136
783.000000	100.081899
782.000000	100.118920
781.000000	100.129697
780.000000	100.081345
779.000000	100.076872
778.000000	100.085548
777.000000	100.046166
776.000000	100.097649
775.000000	100.093166
774.000000	100.120698
773.000000	100.111519
772.000000	100.067487
771.000000	100.071884
770.000000	100.093831
769.000000	100.093333
768.000000	100.108588
767.000000	100.115104
766.000000	100.100751
765.000000	100.104924
764.000000	100.105963
763.000000	100.044138
762.000000	100.073045
761.000000	100.084497
760.000000	100.107956
759.000000	100.076418
758.000000	100.050373
757.000000	100.075593
756.000000	100.065371
755.000000	100.087851
754.000000	100.087432
753.000000	100.096169
752.000000	100.072056
751.000000	100.107689
750.000000	100.054005
749.000000	100.045990
748.000000	100.066084
747.000000	100.105375
746.000000	100.098563
745.000000	100.086674
744.000000	100.134654
743.000000	100.092487
742.000000	100.070823
741.000000	100.062768
740.000000	100.062694
739.000000	100.067787
738.000000	100.106547
737.000000	100.103248
736.000000	100.060664
735.000000	100.063882
734.000000	100.043962
733.000000	100.045084
732.000000	100.080455
731.000000	100.090359
730.000000	100.079626
729.000000	100.100082
728.000000	100.074347
727.000000	100.065146
726.000000	100.090036
725.000000	100.098626
724.000000	100.072085
723.000000	100.049546
722.000000	100.071564
721.000000	100.078155
720.000000	100.098633
719.000000	100.084639
718.000000	100.079663
717.000000	100.060763
716.000000	100.057323
715.000000	100.062230
714.000000	100.080738
713.000000	100.097705
712.000000	100.084906
711.000000	100.063748
710.000000	100.070677
709.000000	100.092229
708.000000	100.100728
707.000000	100.112807
706.000000	100.086727
705.000000	100.097695
704.000000	100.103539
703.000000	100.085559
702.000000	100.061772
701.000000	100.054180
700.000000	100.056540
699.000000	100.072433
698.000000	100.101765
697.000000	100.098893
696.000000	100.094439
695.000000	100.083488
694.000000	100.075669
693.000000	100.082963
692.000000	100.082866
691.000000	100.072688
690.000000	100.070227
689.000000	100.089511
688.000000	100.076071
687.000000	100.071597
686.000000	100.089672
685.000000	100.081845
684.000000	100.090382
683.000000	100.083778
682.000000	100.078080
681.000000	100.063727
680.000000	100.081934
679.000000	100.104423
678.000000	100.091414
677.000000	100.065364
676.000000	100.080548
675.000000	100.087753
674.000000	100.095630
673.000000	100.069236
672.000000	100.066109
671.000000	100.104592
670.000000	100.101339
669.000000	100.088641
668.000000	100.093274
667.000000	100.094652
666.000000	100.071929
665.000000	100.087138
664.000000	100.096151
663.000000	100.087156
662.000000	100.082336
661.000000	100.091824
660.000000	100.091838
659.000000	100.084413
658.000000	100.090185
657.000000	100.089522
656.000000	100.064383
655.000000	100.064163
654.000000	100.095422
653.000000	100.106053
652.000000	100.098512
651.000000	100.095707
650.000000	100.083977
649.000000	100.075964
648.000000	100.085685
647.000000	100.093731
646.000000	100.087537
645.000000	100.080650
644.000000	100.093424
643.000000	100.087121
642.000000	100.050960
641.000000	100.066339
640.000000	100.094969
639.000000	100.091135
638.000000	100.082775
637.000000	100.084369
636.000000	100.080537
635.000000	100.084058
634.000000	100.078634
633.000000	100.092573
632.000000	100.094856
631.000000	100.063842
630.000000	100.065093
629.000000	100.071674
628.000000	100.071569
627.000000	100.085854
626.000000	100.073172
625.000000	100.069659
624.000000	100.086898
623.000000	100.066515
622.000000	100.066636
621.000000	100.072081
620.000000	100.081621
619.000000	100.082310
618.000000	100.068136
617.000000	100.067695
616.000000	100.064871
615.000000	100.058071
614.000000	100.069196
613.000000	100.067279
612.000000	100.071041
611.000000	100.090349
610.000000	100.084112
609.000000	100.088215
608.000000	100.062101
607.000000	100.053932
606.000000	100.078930
605.000000	100.081095
604.000000	100.084519
603.000000	100.079643
602.000000	100.084547
601.000000	100.079675
600.000000	100.080476
599.000000	100.063545
598.000000	100.071406
597.000000	100.080743
596.000000	100.081443
595.000000	100.073717
594.000000	100.072822
593.000000	100.080795
592.000000	100.087640
591.000000	100.089366
590.000000	100.085615
589.000000	100.070146
588.000000	100.064695
587.000000	100.059915
586.000000	100.060841
585.000000	100.076475
584.000000	100.080927
583.000000	100.082651
582.000000	100.091456
581.000000	100.079031
580.000000	100.075742
579.000000	100.083175
578.000000	100.078393
577.000000	100.072804
576.000000	100.073842
575.000000	100.077172
574.000000	100.078092
573.000000	100.073088
572.000000	100.066357
571.000000	100.106605
570.000000	100.092329
569.000000	100.102641
568.000000	100.083668
567.000000	100.093172
566.000000	100.083811
565.000000	100.083940
564.000000	100.091285
563.000000	100.090727
562.000000	100.060270
561.000000	100.069978
560.000000	100.067136
559.000000	100.074470
558.000000	100.084554
557.000000	100.066945
556.000000	100.059747
555.000000	100.072701
554.000000	100.080502
553.000000	100.083612
552.000000	100.079390
551.000000	100.074024
550.000000	100.062462
549.000000	100.055136
548.000000	100.073160
547.000000	100.080980
546.000000	100.066763
545.000000	100.067127
544.000000	100.074844
543.000000	100.070608
542.000000	100.048118
541.000000	100.076969
540.000000	100.070316
539.000000	100.072421
538.000000	100.080143
537.000000	100.059339
536.000000	100.071336
535.000000	100.070100
534.000000	100.062175
533.000000	100.081674
532.000000	100.096796
531.000000	100.071702
530.000000	100.085109
529.000000	100.076491
528.000000	100.088325
527.000000	100.095650
526.000000	100.078238
525.000000	100.080942
524.000000	100.072776
523.000000	100.081625
522.000000	100.083070
521.000000	100.071069
520.000000	100.071936
519.000000	100.089881
518.000000	100.066123
517.000000	100.096654
516.000000	100.080439
515.000000	100.088314
514.000000	100.067860
513.000000	100.069778
512.000000	100.072643
511.000000	100.082982
510.000000	100.083149
509.000000	100.075708
508.000000	100.075628
507.000000	100.058208
506.000000	100.054006
505.000000	100.065852
504.000000	100.056597
503.000000	100.063279
502.000000	100.060814
501.000000	100.082251
500.000000	100.075668
499.000000	100.072251
498.000000	100.066504
497.000000	100.058630
496.000000	100.063536
495.000000	100.050290
494.000000	100.089215
493.000000	100.065567
492.000000	100.060404
491.000000	100.090890
490.000000	100.047881
489.000000	100.052900
488.000000	100.093774
487.000000	100.060014
486.000000	100.060475
485.000000	100.064784
484.000000	100.079032
483.000000	100.054496
482.000000	100.057748
481.000000	100.057261
480.000000	100.079255
479.000000	100.066619
478.000000	100.088891
477.000000	100.067170
476.000000	100.066506
475.000000	100.059398
474.000000	100.066581
473.000000	100.077421
472.000000	100.060562
471.000000	100.066361
470.000000	100.073337
469.000000	100.072194
468.000000	100.067297
467.000000	100.071340
466.000000	100.055589
465.000000	100.067405
464.000000	100.060709
463.000000	100.074527
462.000000	100.075606
461.000000	100.065839
460.000000	100.075045
459.000000	100.075056
458.000000	100.067857
457.000000	100.048378
456.000000	100.086868
455.000000	100.077768
454.000000	100.061728
453.000000	100.069870
452.000000	100.084396
451.000000	100.079434
450.000000	100.069287
449.000000	100.047566
448.000000	100.076158
447.000000	100.053822
446.000000	100.078632
445.000000	100.091622
444.000000	100.082156
443.000000	100.039896
442.000000	100.047714
441.000000	100.067234
440.000000	100.083578
439.000000	100.065741
438.000000	100.046837
437.000000	100.045077
436.000000	100.050889
435.000000	100.086324
434.000000	100.063353
433.000000	100.068708
432.000000	100.045973
431.000000	100.022282
430.000000	100.061298
429.000000	100.055981
428.000000	100.062291
427.000000	100.063137
426.000000	100.055085
425.000000	100.078039
424.000000	100.076516
423.000000	100.069165
422.000000	100.048855
421.000000	100.068853
420.000000	100.061251
419.000000	100.055199
418.000000	100.076892
417.000000	100.070128
416.000000	100.030604
415.000000	100.048839
414.000000	100.067561
413.000000	100.074852
412.000000	100.084184
411.000000	100.075019
410.000000	100.062504
409.000000	100.052498
408.000000	100.061944
407.000000	100.068532
406.000000	100.053859
405.000000	100.026756
404.000000	100.062965
403.000000	100.078650
402.000000	100.054159
401.000000	100.050580
400.000000	100.075126
399.000000	100.063059
398.000000	100.075536
397.000000	100.088137
396.000000	100.089831
395.000000	100.093333
394.000000	100.078728
393.000000	100.078504
392.000000	100.054061
391.000000	100.049162
390.000000	100.063216
389.000000	100.065387
388.000000	100.052084
387.000000	100.053169
386.000000	100.057731
385.000000	100.061109
384.000000	100.049953
383.000000	100.036383
382.000000	100.018970
381.000000	100.020175
380.000000	100.039639
379.000000	100.055534
378.000000	100.065603
377.000000	100.056776
376.000000	100.032526
375.000000	100.056193
374.000000	100.103714
373.000000	100.071508
372.000000	100.030747
371.000000	100.045017
370.000000	100.015813
369.000000	100.033209
368.000000	100.077630
367.000000	100.053287
366.000000	99.998800
365.000000	100.036157
364.000000	100.087883
363.000000	100.087312
362.000000	100.061350
361.000000	100.034048
360.000000	100.067163
359.000000	100.085611
358.000000	100.068044
357.000000	100.053493
356.000000	100.039404
355.000000	100.051827
354.000000	100.040865
353.000000	100.020738
352.000000	100.015679
351.000000	100.034502
350.000000	100.032332
349.000000	100.029320
348.000000	100.032471
347.000000	100.046014
346.000000	100.051943
345.000000	99.999879
344.000000	100.000121
343.000000	100.033455
342.000000	100.058948
341.000000	100.029596
340.000000	100.016551
339.000000	100.036372
338.000000	100.053666
337.000000	100.079070
336.000000	100.067364
335.000000	100.038945
334.000000	100.029024
333.000000	100.048998
332.000000	100.050084
331.000000	100.006290
330.000000	100.018638
329.000000	100.049510
328.000000	100.056156
327.000000	100.080273
326.000000	100.063456
325.000000	100.044081
324.000000	100.010412
323.000000	100.038996
322.000000	100.049799
321.000000	100.035018
320.000000	100.017569
319.000000	100.005194
318.000000	99.971543
317.000000	99.989623
316.000000	99.979725
315.000000	99.968859
314.000000	99.997222
313.000000	100.012569
312.000000	100.021404
311.000000	99.985127
310.000000	100.004961
309.000000	99.992736
308.000000	100.014659
307.000000	100.037704
306.000000	100.034808
305.000000	99.987867
304.000000	99.996480
303.000000	100.019804
302.000000	100.005592
301.000000	99.999757
300.000000	99.992089
299.000000	99.968464
298.000000	99.988300
297.000000	99.986826
296.000000	99.967659
295.000000	100.010260
294.000000	99.980931
293.000000	99.954367
292.000000	99.974527
291.000000	99.970342
290.000000	99.974606
289.000000	99.957522
288.000000	99.970634
287.000000	99.993605
286.000000	99.967622
285.000000	99.991497
284.000000	100.016526
283.000000	99.982844
282.000000	99.972834
281.000000	99.956503
280.000000	99.942378
279.000000	99.974261
278.000000	99.934879
277.000000	99.946478
276.000000	99.971863
275.000000	99.934533
274.000000	99.960791
273.000000	99.955939
272.000000	99.942518
271.000000	99.901768
270.000000	99.935025
269.000000	99.902953
268.000000	99.946919
267.000000	99.919683
266.000000	99.945648
265.000000	99.941041
264.000000	99.928728
263.000000	99.929961
262.000000	99.930449
261.000000	99.951229
260.000000	99.937677
259.000000	99.921148
258.000000	99.909345
257.000000	99.905779
256.000000	99.909399
255.000000	99.920102
254.000000	99.927592
253.000000	99.878593
252.000000	99.908046
251.000000	99.904003
250.000000	99.925847
249.000000	99.892060
248.000000	99.913404
247.000000	99.874468
246.000000	99.885403
245.000000	99.899463
244.000000	99.870536
243.000000	99.875572
242.000000	99.856738
241.000000	99.861843
240.000000	99.869670
239.000000	99.856955
238.000000	99.857747
237.000000	99.824669
236.000000	99.886474
235.000000	99.861165
234.000000	99.831461
233.000000	99.843210
232.000000	99.859649
231.000000	99.842626
230.000000	99.841306
229.000000	99.829785
228.000000	99.816123
227.000000	99.835829
226.000000	99.799170
225.000000	99.807691
224.000000	99.777203
223.000000	99.788176
222.000000	99.778602
221.000000	99.801906
220.000000	99.771490
219.000000	99.763646
218.000000	99.739747
217.000000	99.729349
216.000000	99.709066
215.000000	99.689685
214.000000	99.695970
213.000000	99.701535
212.000000	99.709033
211.000000	99.712412
210.000000	99.692145
209.000000	99.654396
208.000000	99.649023
207.000000	99.660389
206.000000	99.615868
205.000000	99.567603
204.000000	99.605664
203.000000	99.644528
202.000000	99.574257
201.000000	99.529740
200.000000	99.562863
199.000000	99.533839
198.000000	99.493756
197.000000	99.459651
196.000000	99.390533
195.000000	99.325085
194.000000	99.184461
193.000000	99.091560
192.000000	98.899152
191.000000	98.675939
190.000000	98.195123
