PE UV       SUBTECH     SPECTRUM    ASCII       PEDS        4.00        
   -1
C2F6_3bar.Sample.Cycle2.ASC
26/05/13
18:26:53.00
26/05/13
18:26:53.00
Jinky Agarwala

190.000000
1
Lambda 850+
860L2410213
PerkinElmer UV WinLab 7.4.0.367 / 2.02.11 Lambda 800 UV/VIS, May 23 2018 11:23:04

0
0
1
0
0
UV/VIS
1
1
10
RBeamAtt,SBeamAtt,uv/vis detector
0
0
0
0
Fix
 
0
0.2
0
0
0
 
 
 
0
 
0
319.2
0
Front
100
 
S:100 R:100
 
0
0
0
 
0
 
 
 
0
 
 
0
0
0
0
0
 
 
 
 
0
0


0
0

0


#HDR
-1
-1
#GR
nm
%T
1.0
0.0
800.000000
-1.000000
611
8
100.089518
99.365244
#DATA
800.000000	99.992927
799.000000	100.054428
798.000000	100.016443
797.000000	100.060676
796.000000	100.068084
795.000000	100.037701
794.000000	99.980937
793.000000	99.941174
792.000000	99.952811
791.000000	99.971875
790.000000	100.003489
789.000000	100.020288
788.000000	100.010474
787.000000	99.977302
786.000000	99.975662
785.000000	99.993995
784.000000	99.975762
783.000000	99.945728
782.000000	100.089518
781.000000	100.079174
780.000000	100.037830
779.000000	99.976490
778.000000	100.038398
777.000000	100.026584
776.000000	100.004050
775.000000	99.998467
774.000000	100.025520
773.000000	100.004491
772.000000	100.000767
771.000000	100.030682
770.000000	99.977967
769.000000	100.006251
768.000000	100.000548
767.000000	100.058814
766.000000	100.016024
765.000000	99.993086
764.000000	100.000220
763.000000	99.974198
762.000000	99.999341
761.000000	100.018240
760.000000	100.031441
759.000000	100.048050
758.000000	100.001100
757.000000	100.000220
756.000000	100.048643
755.000000	100.006936
754.000000	99.992622
753.000000	99.993501
752.000000	99.976642
751.000000	100.008267
750.000000	99.999669
749.000000	100.018859
748.000000	100.035524
747.000000	99.988635
746.000000	99.997020
745.000000	100.000331
744.000000	99.997791
743.000000	100.019558
742.000000	99.995360
741.000000	99.979114
740.000000	100.019350
739.000000	99.974124
738.000000	99.996570
737.000000	100.009738
736.000000	99.987380
735.000000	99.985164
734.000000	100.000554
733.000000	99.977070
732.000000	100.013852
731.000000	100.020289
730.000000	100.010979
729.000000	100.047156
728.000000	100.002774
727.000000	99.992897
726.000000	99.984235
725.000000	100.012773
724.000000	99.985117
723.000000	99.981337
722.000000	99.992666
721.000000	100.004892
720.000000	100.013233
719.000000	100.024691
718.000000	100.023587
717.000000	100.022814
716.000000	100.001670
715.000000	99.990983
714.000000	99.995545
713.000000	100.000668
712.000000	100.004903
711.000000	99.998551
710.000000	100.004236
709.000000	100.011041
708.000000	99.983379
707.000000	100.008034
706.000000	100.012836
705.000000	100.006922
704.000000	100.027700
703.000000	100.011840
702.000000	99.982798
701.000000	99.973189
700.000000	99.977764
699.000000	99.994411
698.000000	100.014650
697.000000	100.028750
696.000000	100.030100
695.000000	100.023726
694.000000	100.018917
693.000000	99.997313
692.000000	100.016349
691.000000	100.025872
690.000000	100.006608
689.000000	100.016468
688.000000	99.990813
687.000000	99.982073
686.000000	99.981617
685.000000	99.985201
684.000000	99.994393
683.000000	99.988560
682.000000	99.999439
681.000000	99.990351
680.000000	99.999551
679.000000	100.006400
678.000000	100.020551
677.000000	100.014937
676.000000	99.999326
675.000000	100.002247
674.000000	99.999775
673.000000	99.986962
672.000000	100.001349
671.000000	100.008997
670.000000	99.989427
669.000000	100.000675
668.000000	100.003375
667.000000	100.005290
666.000000	100.010694
665.000000	100.014410
664.000000	100.003941
663.000000	99.993018
662.000000	99.999099
661.000000	100.012281
660.000000	100.007324
659.000000	100.009918
658.000000	100.017135
657.000000	99.998422
656.000000	99.981734
655.000000	99.979702
654.000000	99.992894
653.000000	100.011057
652.000000	100.007673
651.000000	100.004966
650.000000	100.003612
649.000000	100.000113
648.000000	100.000903
647.000000	100.003614
646.000000	100.001468
645.000000	100.008472
644.000000	100.003276
643.000000	100.003842
642.000000	99.988701
641.000000	99.994236
640.000000	100.006783
639.000000	100.000791
638.000000	100.002149
637.000000	100.002827
636.000000	100.011764
635.000000	100.008824
634.000000	99.997737
633.000000	99.998529
632.000000	99.995246
631.000000	99.991850
630.000000	100.001811
629.000000	100.002944
628.000000	100.004077
627.000000	100.021520
626.000000	100.011327
625.000000	99.986521
624.000000	99.999320
623.000000	99.995354
622.000000	99.992407
621.000000	99.992407
620.000000	99.994785
619.000000	100.001474
618.000000	99.987643
617.000000	99.991496
616.000000	99.990474
615.000000	99.996597
614.000000	100.005105
613.000000	100.025641
612.000000	100.014980
611.000000	100.005221
610.000000	99.997957
609.000000	100.021003
608.000000	100.009082
607.000000	99.999319
606.000000	100.011698
605.000000	99.994775
604.000000	99.985686
603.000000	100.006249
602.000000	100.017273
601.000000	100.002387
600.000000	100.004547
599.000000	99.989883
598.000000	99.992837
597.000000	100.004435
596.000000	100.007849
595.000000	100.000569
594.000000	100.010354
593.000000	100.004552
592.000000	100.002959
591.000000	99.999203
590.000000	99.997154
589.000000	99.992370
588.000000	99.998861
587.000000	99.997494
586.000000	99.993620
585.000000	100.014246
584.000000	100.005585
583.000000	100.014136
582.000000	100.012202
581.000000	100.012088
580.000000	100.020989
579.000000	100.006732
578.000000	100.003651
577.000000	99.984823
576.000000	99.989843
575.000000	100.007306
574.000000	99.987099
573.000000	100.004111
572.000000	99.997602
571.000000	100.019767
570.000000	100.014398
569.000000	100.025375
568.000000	100.020231
567.000000	100.023550
566.000000	100.001601
565.000000	99.993481
564.000000	100.014757
563.000000	100.017734
562.000000	100.016812
561.000000	100.000343
560.000000	100.002974
559.000000	99.991535
558.000000	99.992220
557.000000	99.995995
556.000000	99.992446
555.000000	99.999771
554.000000	100.001145
553.000000	100.011225
552.000000	99.992325
551.000000	99.993125
550.000000	99.988539
549.000000	99.992205
548.000000	99.999427
547.000000	100.008488
546.000000	100.004244
545.000000	99.996328
544.000000	100.008724
543.000000	100.007577
542.000000	99.997474
541.000000	99.999081
540.000000	99.991728
539.000000	100.015979
538.000000	100.016098
537.000000	99.980795
536.000000	100.005638
535.000000	100.005986
534.000000	99.991595
533.000000	100.010828
532.000000	100.005992
531.000000	100.012450
530.000000	99.990082
529.000000	99.995270
528.000000	100.015009
527.000000	100.009242
526.000000	100.000925
525.000000	99.999769
524.000000	100.007636
523.000000	100.006136
522.000000	99.990963
521.000000	100.004637
520.000000	99.995939
519.000000	100.013122
518.000000	100.001162
517.000000	100.002559
516.000000	100.004773
515.000000	100.001981
514.000000	100.003498
513.000000	99.987865
512.000000	100.002336
511.000000	100.023726
510.000000	100.016490
509.000000	99.991458
508.000000	99.984312
507.000000	99.997658
506.000000	99.994611
505.000000	100.008319
504.000000	100.011249
503.000000	99.996836
502.000000	100.009374
501.000000	99.986174
500.000000	100.002928
499.000000	100.000117
498.000000	100.028335
497.000000	99.996138
496.000000	100.019424
495.000000	99.982457
494.000000	100.008419
493.000000	100.006311
492.000000	99.966819
491.000000	100.006425
490.000000	100.011795
489.000000	100.010627
488.000000	100.022889
487.000000	100.011092
486.000000	99.985290
485.000000	99.998599
484.000000	100.019145
483.000000	100.000467
482.000000	99.984600
481.000000	99.985189
480.000000	99.994281
479.000000	100.023843
478.000000	100.021521
477.000000	100.006085
476.000000	99.998127
475.000000	99.987230
474.000000	99.991443
473.000000	100.004223
472.000000	99.989789
471.000000	100.000587
470.000000	100.009167
469.000000	99.988830
468.000000	99.979764
467.000000	100.004003
466.000000	99.991049
465.000000	100.013787
464.000000	99.990452
463.000000	100.005424
462.000000	100.006959
461.000000	100.018171
460.000000	99.988554
459.000000	99.989379
458.000000	99.998230
457.000000	100.008732
456.000000	100.027854
455.000000	100.001416
454.000000	99.991384
453.000000	100.004013
452.000000	100.017823
451.000000	99.999882
450.000000	100.003659
449.000000	99.988787
448.000000	100.027747
447.000000	99.977692
446.000000	99.998465
445.000000	100.027274
444.000000	100.021601
443.000000	99.967776
442.000000	100.007322
441.000000	100.024696
440.000000	100.014068
439.000000	99.989358
438.000000	99.998936
437.000000	99.987104
436.000000	99.986745
435.000000	100.016341
434.000000	100.001539
433.000000	100.013268
432.000000	99.990047
431.000000	99.977007
430.000000	99.973797
429.000000	99.990037
428.000000	99.997271
427.000000	99.979469
426.000000	99.996082
425.000000	100.026251
424.000000	100.028634
423.000000	100.003328
422.000000	99.998811
421.000000	100.016648
420.000000	100.026403
419.000000	100.011658
418.000000	100.014521
417.000000	100.008453
416.000000	100.001310
415.000000	99.994044
414.000000	99.988680
413.000000	99.996663
412.000000	99.982829
411.000000	100.000477
410.000000	99.987953
409.000000	99.985325
408.000000	99.985678
407.000000	99.988658
406.000000	99.986864
405.000000	99.981605
404.000000	99.983870
403.000000	99.996653
402.000000	99.995815
401.000000	100.001435
400.000000	100.002512
399.000000	99.983009
398.000000	99.998444
397.000000	100.018921
396.000000	100.021799
395.000000	100.033188
394.000000	100.015458
393.000000	99.996524
392.000000	99.990291
391.000000	99.997122
390.000000	100.008997
389.000000	99.990402
388.000000	99.976838
387.000000	99.982117
386.000000	99.985837
385.000000	99.977910
384.000000	99.978025
383.000000	99.982949
382.000000	99.964580
381.000000	99.980665
380.000000	99.993273
379.000000	99.997008
378.000000	100.017621
377.000000	100.008689
376.000000	99.969857
375.000000	100.014675
374.000000	100.061774
373.000000	100.033602
372.000000	100.042950
371.000000	100.029572
370.000000	99.974124
369.000000	99.985733
368.000000	99.991361
367.000000	99.978517
366.000000	99.963871
365.000000	99.988348
364.000000	100.015148
363.000000	100.044017
362.000000	100.032359
361.000000	99.993022
360.000000	100.004815
359.000000	100.007465
358.000000	100.013248
357.000000	100.040120
356.000000	100.038801
355.000000	100.035435
354.000000	100.014586
353.000000	99.988546
352.000000	99.997226
351.000000	99.986127
350.000000	99.948003
349.000000	99.947151
348.000000	99.997586
347.000000	100.020048
346.000000	100.034790
345.000000	99.987683
344.000000	99.969451
343.000000	99.973550
342.000000	99.990699
341.000000	99.982725
340.000000	99.949621
339.000000	99.990212
338.000000	100.004956
337.000000	100.001693
336.000000	100.021044
335.000000	100.025278
334.000000	99.995163
333.000000	100.012945
332.000000	99.971570
331.000000	99.956819
330.000000	100.002178
329.000000	100.025057
328.000000	100.026504
327.000000	100.027000
326.000000	100.026763
325.000000	100.012958
324.000000	99.954840
323.000000	99.965243
322.000000	100.000606
321.000000	99.997940
320.000000	99.930086
319.000000	99.921853
318.000000	99.934042
317.000000	99.953787
316.000000	99.960778
315.000000	99.934822
314.000000	99.928016
313.000000	99.963139
312.000000	99.990447
311.000000	99.970013
310.000000	99.991651
309.000000	99.999031
308.000000	100.011146
307.000000	99.995878
306.000000	99.946636
305.000000	99.936664
304.000000	99.958727
303.000000	99.997935
302.000000	99.969608
301.000000	99.976280
300.000000	99.960811
299.000000	99.936563
298.000000	99.937599
297.000000	99.984143
296.000000	99.967171
295.000000	99.967632
294.000000	99.956728
293.000000	99.965989
292.000000	99.987508
291.000000	99.948404
290.000000	99.965406
289.000000	99.952612
288.000000	99.953186
287.000000	99.966547
286.000000	99.963067
285.000000	99.988786
284.000000	99.986434
283.000000	99.985436
282.000000	99.967647
281.000000	99.986531
280.000000	99.962162
279.000000	99.948152
278.000000	99.950726
277.000000	99.966921
276.000000	99.951659
275.000000	99.914323
274.000000	99.949996
273.000000	99.958918
272.000000	99.959154
271.000000	99.928344
270.000000	99.939746
269.000000	99.951787
268.000000	99.945427
267.000000	99.938332
266.000000	99.968035
265.000000	99.947509
264.000000	99.928231
263.000000	99.927597
262.000000	99.977480
261.000000	99.960809
260.000000	99.937926
259.000000	99.949007
258.000000	99.933843
257.000000	99.931634
256.000000	99.925431
255.000000	99.960610
254.000000	99.927716
253.000000	99.915462
252.000000	99.957435
251.000000	99.917894
250.000000	99.944323
249.000000	99.937541
248.000000	99.919598
247.000000	99.929435
246.000000	99.948518
245.000000	99.944229
244.000000	99.942433
243.000000	99.953957
242.000000	99.924794
241.000000	99.932891
240.000000	99.913933
239.000000	99.918348
238.000000	99.925072
237.000000	99.900091
236.000000	99.939077
235.000000	99.926549
234.000000	99.892892
233.000000	99.917453
232.000000	99.927198
231.000000	99.934509
230.000000	99.914662
229.000000	99.930984
228.000000	99.893177
227.000000	99.918528
226.000000	99.915194
225.000000	99.892149
224.000000	99.888601
223.000000	99.907999
222.000000	99.906036
221.000000	99.920961
220.000000	99.906802
219.000000	99.911055
218.000000	99.899180
217.000000	99.891112
216.000000	99.885516
215.000000	99.855136
214.000000	99.889997
213.000000	99.881479
212.000000	99.915390
211.000000	99.887577
210.000000	99.864960
209.000000	99.865627
208.000000	99.840371
207.000000	99.880688
206.000000	99.827767
205.000000	99.863557
204.000000	99.888743
203.000000	99.871676
202.000000	99.838883
201.000000	99.838562
200.000000	99.855993
199.000000	99.849207
198.000000	99.851121
197.000000	99.850106
196.000000	99.767842
195.000000	99.783334
194.000000	99.729278
193.000000	99.662957
192.000000	99.599570
191.000000	99.515324
190.000000	99.365244
