PE UV       SUBTECH     SPECTRUM    ASCII       PEDS        4.00        
   -1
C2F6_6bar.Sample.Cycle9.ASC
26/05/13
19:11:31.00
26/05/13
19:11:31.00
Jinky Agarwala

190.000000
1
Lambda 850+
860L2410213
PerkinElmer UV WinLab 7.4.0.367 / 2.02.11 Lambda 800 UV/VIS, May 23 2018 11:23:04

0
0
1
0
0
UV/VIS
1
1
10
RBeamAtt,SBeamAtt,uv/vis detector
0
0
0
0
Fix
 
0
0.2
0
0
0
 
 
 
0
 
0
319.2
0
Front
100
 
S:100 R:100
 
0
0
0
 
0
 
 
 
0
 
 
0
0
0
0
0
 
 
 
 
0
0


0
0

0


#HDR
-1
-1
#GR
nm
%T
1.0
0.0
800.000000
-1.000000
611
8
100.163597
98.287122
#DATA
800.000000	100.108056
799.000000	100.119087
798.000000	100.129913
797.000000	100.070916
796.000000	100.122225
795.000000	100.133372
794.000000	100.076687
793.000000	100.056757
792.000000	100.091980
791.000000	100.088845
790.000000	100.072185
789.000000	100.057809
788.000000	100.091975
787.000000	100.046705
786.000000	100.075852
785.000000	100.122833
784.000000	100.086034
783.000000	100.026645
782.000000	100.149415
781.000000	100.163597
780.000000	100.061009
779.000000	100.070202
778.000000	100.114209
777.000000	100.084565
776.000000	100.106188
775.000000	100.119660
774.000000	100.132198
773.000000	100.083913
772.000000	100.067158
771.000000	100.083390
770.000000	100.094050
769.000000	100.118229
768.000000	100.106833
767.000000	100.090964
766.000000	100.091752
765.000000	100.069803
764.000000	100.109367
763.000000	100.082457
762.000000	100.035589
761.000000	100.067356
760.000000	100.097732
759.000000	100.084114
758.000000	100.086117
757.000000	100.060298
756.000000	100.073735
755.000000	100.081686
754.000000	100.096352
753.000000	100.078653
752.000000	100.046164
751.000000	100.113090
750.000000	100.086298
749.000000	100.108964
748.000000	100.081088
747.000000	100.063004
746.000000	100.062471
745.000000	100.046484
744.000000	100.100079
743.000000	100.110277
742.000000	100.070270
741.000000	100.031384
740.000000	100.072314
739.000000	100.057171
738.000000	100.080215
737.000000	100.087202
736.000000	100.098302
735.000000	100.085804
734.000000	100.046730
733.000000	100.049958
732.000000	100.058180
731.000000	100.090692
730.000000	100.094264
729.000000	100.104187
728.000000	100.089438
727.000000	100.073692
726.000000	100.076159
725.000000	100.082188
724.000000	100.067198
723.000000	100.076541
722.000000	100.064896
721.000000	100.068594
720.000000	100.055043
719.000000	100.054387
718.000000	100.067091
717.000000	100.085246
716.000000	100.072572
715.000000	100.064790
714.000000	100.093879
713.000000	100.096591
712.000000	100.090143
711.000000	100.083029
710.000000	100.087845
709.000000	100.080073
708.000000	100.078195
707.000000	100.088929
706.000000	100.102912
705.000000	100.116676
704.000000	100.106107
703.000000	100.076065
702.000000	100.052724
701.000000	100.025917
700.000000	100.037097
699.000000	100.062150
698.000000	100.083089
697.000000	100.097998
696.000000	100.094887
695.000000	100.080802
694.000000	100.099512
693.000000	100.091249
692.000000	100.079506
691.000000	100.080192
690.000000	100.065298
689.000000	100.091863
688.000000	100.084922
687.000000	100.066219
686.000000	100.073083
685.000000	100.075006
684.000000	100.078271
683.000000	100.067853
682.000000	100.072247
681.000000	100.057220
680.000000	100.074639
679.000000	100.105882
678.000000	100.098826
677.000000	100.067722
676.000000	100.064259
675.000000	100.083483
674.000000	100.097090
673.000000	100.090928
672.000000	100.076902
671.000000	100.077938
670.000000	100.084805
669.000000	100.082566
668.000000	100.074034
667.000000	100.084297
666.000000	100.082510
665.000000	100.088826
664.000000	100.085117
663.000000	100.071842
662.000000	100.079408
661.000000	100.088106
660.000000	100.080569
659.000000	100.070664
658.000000	100.071134
657.000000	100.063252
656.000000	100.062691
655.000000	100.071606
654.000000	100.091249
653.000000	100.104925
652.000000	100.100204
651.000000	100.086565
650.000000	100.083300
649.000000	100.069191
648.000000	100.058478
647.000000	100.085149
646.000000	100.085504
645.000000	100.079182
644.000000	100.076027
643.000000	100.085313
642.000000	100.062824
641.000000	100.050969
640.000000	100.085019
639.000000	100.093849
638.000000	100.088316
637.000000	100.078149
636.000000	100.076917
635.000000	100.080551
634.000000	100.072977
633.000000	100.077974
632.000000	100.083084
631.000000	100.070634
630.000000	100.079584
629.000000	100.081185
628.000000	100.075985
627.000000	100.079851
626.000000	100.063204
625.000000	100.056407
624.000000	100.064579
623.000000	100.061869
622.000000	100.065049
621.000000	100.063128
620.000000	100.073686
619.000000	100.059182
618.000000	100.041494
617.000000	100.056922
616.000000	100.071789
615.000000	100.066237
614.000000	100.066019
613.000000	100.074200
612.000000	100.094191
611.000000	100.078772
610.000000	100.072988
609.000000	100.090031
608.000000	100.065848
607.000000	100.061993
606.000000	100.090968
605.000000	100.080868
604.000000	100.085314
603.000000	100.072712
602.000000	100.076706
601.000000	100.080925
600.000000	100.075247
599.000000	100.078663
598.000000	100.086984
597.000000	100.080288
596.000000	100.082353
595.000000	100.072466
594.000000	100.074983
593.000000	100.077837
592.000000	100.076941
591.000000	100.086520
590.000000	100.064895
589.000000	100.052837
588.000000	100.071871
587.000000	100.055017
586.000000	100.074855
585.000000	100.093913
584.000000	100.071808
583.000000	100.070111
582.000000	100.092938
581.000000	100.087128
580.000000	100.088859
579.000000	100.072678
578.000000	100.083300
577.000000	100.085699
576.000000	100.059233
575.000000	100.066897
574.000000	100.068160
573.000000	100.085764
572.000000	100.060646
571.000000	100.104091
570.000000	100.083416
569.000000	100.091097
568.000000	100.076010
567.000000	100.085170
566.000000	100.080152
565.000000	100.075821
564.000000	100.099293
563.000000	100.070477
562.000000	100.066903
561.000000	100.057743
560.000000	100.067364
559.000000	100.060171
558.000000	100.072311
557.000000	100.056417
556.000000	100.069591
555.000000	100.070984
554.000000	100.080388
553.000000	100.067233
552.000000	100.062320
551.000000	100.070701
550.000000	100.070484
549.000000	100.059836
548.000000	100.085774
547.000000	100.084077
546.000000	100.066190
545.000000	100.071947
544.000000	100.080698
543.000000	100.078530
542.000000	100.069248
541.000000	100.066400
540.000000	100.071465
539.000000	100.082537
538.000000	100.080373
537.000000	100.040479
536.000000	100.074788
535.000000	100.091625
534.000000	100.083360
533.000000	100.087549
532.000000	100.082853
531.000000	100.078503
530.000000	100.070002
529.000000	100.066338
528.000000	100.098601
527.000000	100.088026
526.000000	100.087136
525.000000	100.082214
524.000000	100.067916
523.000000	100.081162
522.000000	100.069978
521.000000	100.065504
520.000000	100.077157
519.000000	100.093946
518.000000	100.085879
517.000000	100.080254
516.000000	100.080439
515.000000	100.067692
514.000000	100.058765
513.000000	100.069545
512.000000	100.079067
511.000000	100.087073
510.000000	100.087125
509.000000	100.054762
508.000000	100.074107
507.000000	100.064533
506.000000	100.058106
505.000000	100.058939
504.000000	100.071361
503.000000	100.077575
502.000000	100.082256
501.000000	100.083774
500.000000	100.070280
499.000000	100.049650
498.000000	100.077276
497.000000	100.062726
496.000000	100.073716
495.000000	100.065845
494.000000	100.055423
493.000000	100.053061
492.000000	100.053160
491.000000	100.051170
490.000000	100.064113
489.000000	100.081277
488.000000	100.098912
487.000000	100.063984
486.000000	100.068531
485.000000	100.069686
484.000000	100.085336
483.000000	100.039559
482.000000	100.073731
481.000000	100.068340
480.000000	100.066532
479.000000	100.076787
478.000000	100.074973
477.000000	100.072670
476.000000	100.067912
475.000000	100.057172
474.000000	100.052515
473.000000	100.081527
472.000000	100.068309
471.000000	100.071764
470.000000	100.068636
469.000000	100.056909
468.000000	100.052002
467.000000	100.060863
466.000000	100.059829
465.000000	100.072355
464.000000	100.066839
463.000000	100.058136
462.000000	100.069237
461.000000	100.093803
460.000000	100.067965
459.000000	100.059950
458.000000	100.070925
457.000000	100.056874
456.000000	100.069872
455.000000	100.045787
454.000000	100.056181
453.000000	100.068572
452.000000	100.099977
451.000000	100.066805
450.000000	100.091950
449.000000	100.064091
448.000000	100.064232
447.000000	100.046859
446.000000	100.075916
445.000000	100.079579
444.000000	100.074366
443.000000	100.050756
442.000000	100.060587
441.000000	100.083067
440.000000	100.088662
439.000000	100.065505
438.000000	100.056062
437.000000	100.071105
436.000000	100.062014
435.000000	100.090942
434.000000	100.049262
433.000000	100.054848
432.000000	100.028556
431.000000	100.035675
430.000000	100.029641
429.000000	100.049220
428.000000	100.057070
427.000000	100.044623
426.000000	100.056272
425.000000	100.071388
424.000000	100.066655
423.000000	100.055974
422.000000	100.063238
421.000000	100.073253
420.000000	100.044719
419.000000	100.040923
418.000000	100.076535
417.000000	100.088345
416.000000	100.065732
415.000000	100.053246
414.000000	100.072327
413.000000	100.067104
412.000000	100.075003
411.000000	100.072156
410.000000	100.051649
409.000000	100.053929
408.000000	100.060869
407.000000	100.070800
406.000000	100.053740
405.000000	100.041687
404.000000	100.051973
403.000000	100.031436
402.000000	100.038617
401.000000	100.045677
400.000000	100.064001
399.000000	100.056358
398.000000	100.074220
397.000000	100.076282
396.000000	100.068990
395.000000	100.061703
394.000000	100.052605
393.000000	100.053095
392.000000	100.050345
391.000000	100.044126
390.000000	100.062016
389.000000	100.069946
388.000000	100.061685
387.000000	100.053049
386.000000	100.041528
385.000000	100.064951
384.000000	100.065083
383.000000	100.052833
382.000000	100.018130
381.000000	100.040591
380.000000	100.064864
379.000000	100.030280
378.000000	100.035600
377.000000	100.096055
376.000000	100.091860
375.000000	100.050824
374.000000	100.058309
373.000000	100.081075
372.000000	100.063169
371.000000	100.035199
370.000000	100.036538
369.000000	100.097230
368.000000	100.096827
367.000000	100.045486
366.000000	100.010202
365.000000	100.044686
364.000000	100.081391
363.000000	100.073842
362.000000	100.067485
361.000000	100.050651
360.000000	100.044655
359.000000	100.032751
358.000000	100.035166
357.000000	100.058554
356.000000	100.041332
355.000000	100.022780
354.000000	100.001326
353.000000	100.016157
352.000000	100.040766
351.000000	100.029435
350.000000	99.993606
349.000000	99.998431
348.000000	100.015330
347.000000	100.061715
346.000000	100.069459
345.000000	100.020890
344.000000	100.010505
343.000000	100.026933
342.000000	100.033581
341.000000	100.023798
340.000000	99.999396
339.000000	100.032022
338.000000	100.077235
337.000000	100.068188
336.000000	100.065671
335.000000	100.094822
334.000000	100.057444
333.000000	100.032061
332.000000	100.007984
331.000000	100.009314
330.000000	100.066079
329.000000	100.032563
328.000000	99.973980
327.000000	100.040802
326.000000	100.075203
325.000000	100.054617
324.000000	99.991162
323.000000	100.026159
322.000000	100.057311
321.000000	100.070399
320.000000	100.020477
319.000000	100.002295
318.000000	99.996021
317.000000	100.023529
316.000000	100.008569
315.000000	99.989016
314.000000	99.989130
313.000000	100.005076
312.000000	100.045226
311.000000	99.994559
310.000000	100.000000
309.000000	99.998789
308.000000	100.024835
307.000000	100.036977
306.000000	100.008975
305.000000	100.005945
304.000000	99.964554
303.000000	100.032318
302.000000	100.022855
301.000000	100.006690
300.000000	100.010345
299.000000	99.990016
298.000000	100.016575
297.000000	100.051842
296.000000	99.979253
295.000000	99.968609
294.000000	99.969074
293.000000	99.970271
292.000000	100.018737
291.000000	99.995465
290.000000	99.983807
289.000000	99.966975
288.000000	99.973091
287.000000	99.982167
286.000000	99.989290
285.000000	99.983487
284.000000	99.989270
283.000000	99.988028
282.000000	99.960362
281.000000	99.969231
280.000000	99.984791
279.000000	99.952978
278.000000	99.944907
277.000000	99.942514
276.000000	99.934554
275.000000	99.948916
274.000000	99.960419
273.000000	99.928138
272.000000	99.927620
271.000000	99.902389
270.000000	99.926701
269.000000	99.914509
268.000000	99.917581
267.000000	99.880519
266.000000	99.930101
265.000000	99.948006
264.000000	99.919524
263.000000	99.930832
262.000000	99.960186
261.000000	99.924231
260.000000	99.942653
259.000000	99.919282
258.000000	99.937574
257.000000	99.902175
256.000000	99.928911
255.000000	99.927061
254.000000	99.918029
253.000000	99.893738
252.000000	99.891293
251.000000	99.898174
250.000000	99.911959
249.000000	99.869134
248.000000	99.900643
247.000000	99.869021
246.000000	99.898892
245.000000	99.892538
244.000000	99.867942
243.000000	99.889768
242.000000	99.864752
241.000000	99.889671
240.000000	99.876432
239.000000	99.873531
238.000000	99.881905
237.000000	99.842423
236.000000	99.873261
235.000000	99.875953
234.000000	99.850025
233.000000	99.840890
232.000000	99.861970
231.000000	99.832362
230.000000	99.824434
229.000000	99.848997
228.000000	99.804975
227.000000	99.826381
226.000000	99.802366
225.000000	99.803751
224.000000	99.768567
223.000000	99.807343
222.000000	99.779470
221.000000	99.786868
220.000000	99.786691
219.000000	99.783883
218.000000	99.761414
217.000000	99.740904
216.000000	99.720653
215.000000	99.687917
214.000000	99.691408
213.000000	99.713616
212.000000	99.712351
211.000000	99.694869
210.000000	99.665805
209.000000	99.632602
208.000000	99.650447
207.000000	99.662338
206.000000	99.627220
205.000000	99.606006
204.000000	99.601319
203.000000	99.611455
202.000000	99.584900
201.000000	99.512338
200.000000	99.579956
199.000000	99.558701
198.000000	99.509876
197.000000	99.456263
196.000000	99.391482
195.000000	99.330908
194.000000	99.199441
193.000000	99.131854
192.000000	98.980385
191.000000	98.769782
190.000000	98.287122
