PE UV       SUBTECH     SPECTRUM    ASCII       PEDS        4.00        
   -1
C2F6_9bar.Sample.Cycle10.ASC
26/05/13
20:24:47.00
26/05/13
20:24:47.00
Jinky Agarwala

190.000000
1
Lambda 850+
860L2410213
PerkinElmer UV WinLab 7.4.0.367 / 2.02.11 Lambda 800 UV/VIS, May 23 2018 11:23:04

0
0
1
0
0
UV/VIS
1
1
10
RBeamAtt,SBeamAtt,uv/vis detector
0
0
0
0
Fix
 
0
0.2
0
0
0
 
 
 
0
 
0
319.2
0
Front
100
 
S:100 R:100
 
0
0
0
 
0
 
 
 
0
 
 
0
0
0
0
0
 
 
 
 
0
0


0
0

0


#HDR
-1
-1
#GR
nm
%T
1.0
0.0
800.000000
-1.000000
611
8
100.257300
97.160559
#DATA
800.000000	100.180638
799.000000	100.178305
798.000000	100.222256
797.000000	100.257300
796.000000	100.230942
795.000000	100.212697
794.000000	100.152394
793.000000	100.132468
792.000000	100.169138
791.000000	100.180633
790.000000	100.182862
789.000000	100.208332
788.000000	100.217555
787.000000	100.186493
786.000000	100.138498
785.000000	100.171748
784.000000	100.119771
783.000000	100.107124
782.000000	100.217182
781.000000	100.205590
780.000000	100.175263
779.000000	100.189610
778.000000	100.190349
777.000000	100.186961
776.000000	100.227702
775.000000	100.208337
774.000000	100.208428
773.000000	100.202990
772.000000	100.186355
771.000000	100.198668
770.000000	100.210900
769.000000	100.193026
768.000000	100.197103
767.000000	100.199154
766.000000	100.176150
765.000000	100.158483
764.000000	100.178545
763.000000	100.170733
762.000000	100.213751
761.000000	100.204815
760.000000	100.201182
759.000000	100.202534
758.000000	100.137700
757.000000	100.170221
756.000000	100.186759
755.000000	100.224580
754.000000	100.177948
753.000000	100.183855
752.000000	100.189615
751.000000	100.174816
750.000000	100.152979
749.000000	100.200392
748.000000	100.181373
747.000000	100.170807
746.000000	100.161695
745.000000	100.151928
744.000000	100.163595
743.000000	100.183869
742.000000	100.167057
741.000000	100.137139
740.000000	100.153032
739.000000	100.175384
738.000000	100.191852
737.000000	100.181707
736.000000	100.174020
735.000000	100.163193
734.000000	100.157686
733.000000	100.154305
732.000000	100.175206
731.000000	100.183380
730.000000	100.185867
729.000000	100.209705
728.000000	100.198739
727.000000	100.144276
726.000000	100.160755
725.000000	100.181481
724.000000	100.165273
723.000000	100.176855
722.000000	100.172131
721.000000	100.171651
720.000000	100.162128
719.000000	100.184182
718.000000	100.175237
717.000000	100.176502
716.000000	100.151822
715.000000	100.159861
714.000000	100.193437
713.000000	100.192514
712.000000	100.163573
711.000000	100.176088
710.000000	100.167663
709.000000	100.178547
708.000000	100.189186
707.000000	100.191805
706.000000	100.195554
705.000000	100.200749
704.000000	100.206630
703.000000	100.173017
702.000000	100.142310
701.000000	100.123554
700.000000	100.166490
699.000000	100.178066
698.000000	100.188768
697.000000	100.204386
696.000000	100.197159
695.000000	100.180517
694.000000	100.172607
693.000000	100.179138
692.000000	100.164276
691.000000	100.184463
690.000000	100.180663
689.000000	100.175548
688.000000	100.160768
687.000000	100.148460
686.000000	100.164997
685.000000	100.177817
684.000000	100.167980
683.000000	100.163856
682.000000	100.171530
681.000000	100.133176
680.000000	100.149502
679.000000	100.202333
678.000000	100.204503
677.000000	100.192834
676.000000	100.190642
675.000000	100.183259
674.000000	100.182719
673.000000	100.170392
672.000000	100.172130
671.000000	100.191752
670.000000	100.187831
669.000000	100.165245
668.000000	100.174735
667.000000	100.195493
666.000000	100.181003
665.000000	100.177652
664.000000	100.167307
663.000000	100.152580
662.000000	100.155098
661.000000	100.175648
660.000000	100.179732
659.000000	100.169953
658.000000	100.180371
657.000000	100.182088
656.000000	100.162591
655.000000	100.156856
654.000000	100.162872
653.000000	100.174085
652.000000	100.178630
651.000000	100.193784
650.000000	100.180031
649.000000	100.147864
648.000000	100.157259
647.000000	100.173798
646.000000	100.169991
645.000000	100.164125
644.000000	100.163577
643.000000	100.177971
642.000000	100.154801
641.000000	100.158557
640.000000	100.178971
639.000000	100.167571
638.000000	100.158312
637.000000	100.153923
636.000000	100.160055
635.000000	100.164722
634.000000	100.162020
633.000000	100.182769
632.000000	100.184393
631.000000	100.163454
630.000000	100.166526
629.000000	100.176185
628.000000	100.153329
627.000000	100.166723
626.000000	100.165033
625.000000	100.151438
624.000000	100.167338
623.000000	100.152747
622.000000	100.159789
621.000000	100.146655
620.000000	100.161883
619.000000	100.168475
618.000000	100.155205
617.000000	100.169180
616.000000	100.174198
615.000000	100.166160
614.000000	100.156087
613.000000	100.149308
612.000000	100.163756
611.000000	100.172753
610.000000	100.169926
609.000000	100.170185
608.000000	100.151677
607.000000	100.160546
606.000000	100.170921
605.000000	100.151741
604.000000	100.158019
603.000000	100.163717
602.000000	100.174436
601.000000	100.165941
600.000000	100.163452
599.000000	100.157668
598.000000	100.170329
597.000000	100.166944
596.000000	100.184271
595.000000	100.163929
594.000000	100.155770
593.000000	100.163411
592.000000	100.162987
591.000000	100.172471
590.000000	100.160529
589.000000	100.160106
588.000000	100.161737
587.000000	100.146143
586.000000	100.158824
585.000000	100.187712
584.000000	100.164589
583.000000	100.173511
582.000000	100.180745
581.000000	100.171862
580.000000	100.169734
579.000000	100.175021
578.000000	100.167056
577.000000	100.153939
576.000000	100.149167
575.000000	100.158567
574.000000	100.158811
573.000000	100.169244
572.000000	100.167891
571.000000	100.190929
570.000000	100.168889
569.000000	100.174536
568.000000	100.164821
567.000000	100.181657
566.000000	100.162134
565.000000	100.175657
564.000000	100.176736
563.000000	100.180311
562.000000	100.156907
561.000000	100.144873
560.000000	100.172814
559.000000	100.159694
558.000000	100.155721
557.000000	100.149454
556.000000	100.141814
555.000000	100.161889
554.000000	100.152530
553.000000	100.161612
552.000000	100.152593
551.000000	100.178184
550.000000	100.163317
549.000000	100.151652
548.000000	100.151480
547.000000	100.167465
546.000000	100.151078
545.000000	100.167302
544.000000	100.178271
543.000000	100.165326
542.000000	100.152622
541.000000	100.167264
540.000000	100.163955
539.000000	100.162891
538.000000	100.166495
537.000000	100.148806
536.000000	100.162807
535.000000	100.175539
534.000000	100.168677
533.000000	100.186041
532.000000	100.164323
531.000000	100.153318
530.000000	100.158340
529.000000	100.139368
528.000000	100.177458
527.000000	100.164153
526.000000	100.161792
525.000000	100.178305
524.000000	100.154923
523.000000	100.157577
522.000000	100.152237
521.000000	100.160108
520.000000	100.164061
519.000000	100.168150
518.000000	100.155256
517.000000	100.179816
516.000000	100.161110
515.000000	100.172434
514.000000	100.147496
513.000000	100.149709
512.000000	100.169578
511.000000	100.159770
510.000000	100.164778
509.000000	100.153287
508.000000	100.174086
507.000000	100.141949
506.000000	100.146789
505.000000	100.145648
504.000000	100.148347
503.000000	100.146479
502.000000	100.160646
501.000000	100.163681
500.000000	100.148525
499.000000	100.158787
498.000000	100.159236
497.000000	100.132239
496.000000	100.184173
495.000000	100.142685
494.000000	100.155864
493.000000	100.151937
492.000000	100.129805
491.000000	100.150822
490.000000	100.128343
489.000000	100.153796
488.000000	100.141186
487.000000	100.158091
486.000000	100.159360
485.000000	100.141357
484.000000	100.166937
483.000000	100.138749
482.000000	100.161578
481.000000	100.146943
480.000000	100.142285
479.000000	100.152756
478.000000	100.145734
477.000000	100.141127
476.000000	100.150459
475.000000	100.148084
474.000000	100.133514
473.000000	100.142994
472.000000	100.138143
471.000000	100.154216
470.000000	100.156429
469.000000	100.141331
468.000000	100.147066
467.000000	100.153158
466.000000	100.142859
465.000000	100.141764
464.000000	100.142991
463.000000	100.148700
462.000000	100.147910
461.000000	100.161648
460.000000	100.135695
459.000000	100.165217
458.000000	100.137248
457.000000	100.137819
456.000000	100.158038
455.000000	100.154120
454.000000	100.148005
453.000000	100.137970
452.000000	100.146955
451.000000	100.151432
450.000000	100.156280
449.000000	100.149899
448.000000	100.169200
447.000000	100.138805
446.000000	100.150416
445.000000	100.170138
444.000000	100.145544
443.000000	100.145657
442.000000	100.164046
441.000000	100.136121
440.000000	100.172713
439.000000	100.166954
438.000000	100.131994
437.000000	100.125410
436.000000	100.130891
435.000000	100.155359
434.000000	100.116286
433.000000	100.125096
432.000000	100.123465
431.000000	100.133219
430.000000	100.140499
429.000000	100.135089
428.000000	100.142497
427.000000	100.124018
426.000000	100.122872
425.000000	100.160830
424.000000	100.136280
423.000000	100.151402
422.000000	100.131231
421.000000	100.134971
420.000000	100.131659
419.000000	100.122889
418.000000	100.141167
417.000000	100.158949
416.000000	100.147302
415.000000	100.153902
414.000000	100.142151
413.000000	100.110728
412.000000	100.137962
411.000000	100.160890
410.000000	100.149937
409.000000	100.113586
408.000000	100.124245
407.000000	100.138974
406.000000	100.114406
405.000000	100.111682
404.000000	100.117805
403.000000	100.129928
402.000000	100.128046
401.000000	100.103909
400.000000	100.120106
399.000000	100.121571
398.000000	100.154065
397.000000	100.160826
396.000000	100.138100
395.000000	100.146409
394.000000	100.154460
393.000000	100.127764
392.000000	100.110039
391.000000	100.138254
390.000000	100.147543
389.000000	100.113018
388.000000	100.125770
387.000000	100.128182
386.000000	100.112342
385.000000	100.127500
384.000000	100.132808
383.000000	100.099542
382.000000	100.093051
381.000000	100.100156
380.000000	100.086726
379.000000	100.106640
378.000000	100.163353
377.000000	100.159615
376.000000	100.116523
375.000000	100.114891
374.000000	100.142667
373.000000	100.152105
372.000000	100.142728
371.000000	100.144029
370.000000	100.118718
369.000000	100.123846
368.000000	100.145660
367.000000	100.127216
366.000000	100.071777
365.000000	100.104988
364.000000	100.155810
363.000000	100.144197
362.000000	100.140864
361.000000	100.112010
360.000000	100.103995
359.000000	100.124142
358.000000	100.120673
357.000000	100.098915
356.000000	100.074952
355.000000	100.112574
354.000000	100.101741
353.000000	100.075598
352.000000	100.102157
351.000000	100.120757
350.000000	100.089517
349.000000	100.063105
348.000000	100.078704
347.000000	100.103623
346.000000	100.143992
345.000000	100.105295
344.000000	100.081866
343.000000	100.087200
342.000000	100.084073
341.000000	100.064991
340.000000	100.068017
339.000000	100.096911
338.000000	100.105518
337.000000	100.107965
336.000000	100.112233
335.000000	100.117560
334.000000	100.094208
333.000000	100.119532
332.000000	100.104403
331.000000	100.078380
330.000000	100.106622
329.000000	100.127950
328.000000	100.076972
327.000000	100.088748
326.000000	100.060913
325.000000	100.075688
324.000000	100.038744
323.000000	100.039117
322.000000	100.080454
321.000000	100.073064
320.000000	100.020841
319.000000	100.046019
318.000000	100.047027
317.000000	100.080480
316.000000	100.032222
315.000000	100.011829
314.000000	100.056766
313.000000	100.064053
312.000000	100.036519
311.000000	100.000725
310.000000	100.044891
309.000000	100.072039
308.000000	100.054880
307.000000	100.062679
306.000000	100.042206
305.000000	100.048412
304.000000	100.018087
303.000000	100.024057
302.000000	100.045467
301.000000	100.019949
300.000000	100.035659
299.000000	100.015464
298.000000	100.052773
297.000000	100.037692
296.000000	100.004271
295.000000	100.019177
294.000000	100.029704
293.000000	99.995473
292.000000	100.022044
291.000000	100.000490
290.000000	99.995706
289.000000	99.988583
288.000000	99.987221
287.000000	99.982044
286.000000	100.003816
285.000000	100.019964
284.000000	100.007523
283.000000	99.996544
282.000000	100.002099
281.000000	99.978004
280.000000	99.952641
279.000000	99.971663
278.000000	99.967811
277.000000	99.952797
276.000000	99.943354
275.000000	99.927466
274.000000	99.963893
273.000000	99.939804
272.000000	99.934448
271.000000	99.919775
270.000000	99.923595
269.000000	99.916870
268.000000	99.926532
267.000000	99.910482
266.000000	99.922887
265.000000	99.902481
264.000000	99.875492
263.000000	99.901970
262.000000	99.894492
261.000000	99.896611
260.000000	99.901726
259.000000	99.894034
258.000000	99.875894
257.000000	99.854194
256.000000	99.868634
255.000000	99.870523
254.000000	99.865120
253.000000	99.858358
252.000000	99.848604
251.000000	99.822393
250.000000	99.838674
249.000000	99.848934
248.000000	99.863602
247.000000	99.823835
246.000000	99.849143
245.000000	99.829594
244.000000	99.798022
243.000000	99.822246
242.000000	99.807546
241.000000	99.787223
240.000000	99.766881
239.000000	99.790283
238.000000	99.775828
237.000000	99.764308
236.000000	99.778452
235.000000	99.759605
234.000000	99.737421
233.000000	99.723542
232.000000	99.756188
231.000000	99.743534
230.000000	99.716356
229.000000	99.716839
228.000000	99.694600
227.000000	99.673130
226.000000	99.689291
225.000000	99.647638
224.000000	99.648163
223.000000	99.622104
222.000000	99.653028
221.000000	99.620713
220.000000	99.589579
219.000000	99.574138
218.000000	99.548753
217.000000	99.535058
216.000000	99.520651
215.000000	99.474221
214.000000	99.488256
213.000000	99.473521
212.000000	99.482001
211.000000	99.458115
210.000000	99.425791
209.000000	99.374302
208.000000	99.371322
207.000000	99.409157
206.000000	99.358823
205.000000	99.290523
204.000000	99.310734
203.000000	99.308107
202.000000	99.248430
201.000000	99.169917
200.000000	99.233665
199.000000	99.189555
198.000000	99.107942
197.000000	98.998722
196.000000	98.953457
195.000000	98.819304
194.000000	98.569466
193.000000	98.477308
192.000000	98.209405
191.000000	97.886808
190.000000	97.160559
