PE UV       SUBTECH     SPECTRUM    ASCII       PEDS        4.00        
   -1
C2F6_3bar.Sample.Cycle5.ASC
26/05/13
18:26:53.00
26/05/13
18:26:53.00
Jinky Agarwala

190.000000
1
Lambda 850+
860L2410213
PerkinElmer UV WinLab 7.4.0.367 / 2.02.11 Lambda 800 UV/VIS, May 23 2018 11:23:04

0
0
1
0
0
UV/VIS
1
1
10
RBeamAtt,SBeamAtt,uv/vis detector
0
0
0
0
Fix
 
0
0.2
0
0
0
 
 
 
0
 
0
319.2
0
Front
100
 
S:100 R:100
 
0
0
0
 
0
 
 
 
0
 
 
0
0
0
0
0
 
 
 
 
0
0


0
0

0


#HDR
-1
-1
#GR
nm
%T
1.0
0.0
800.000000
-1.000000
611
8
100.112856
99.322742
#DATA
800.000000	100.027749
799.000000	100.069667
798.000000	100.055864
797.000000	100.052179
796.000000	100.026471
795.000000	100.055789
794.000000	99.979194
793.000000	99.971676
792.000000	99.968396
791.000000	99.998038
790.000000	99.988224
789.000000	100.028141
788.000000	100.008183
787.000000	99.979594
786.000000	100.018663
785.000000	100.036905
784.000000	99.998144
783.000000	99.996178
782.000000	100.044486
781.000000	100.112856
780.000000	100.023835
779.000000	100.030399
778.000000	100.037195
777.000000	100.011377
776.000000	100.049591
775.000000	100.054192
774.000000	100.046877
773.000000	100.010078
772.000000	100.027389
771.000000	99.996822
770.000000	100.014031
769.000000	100.022703
768.000000	100.025886
767.000000	100.040709
766.000000	99.984964
765.000000	99.995939
764.000000	100.056111
763.000000	99.989569
762.000000	99.992641
761.000000	100.002747
760.000000	100.036059
759.000000	100.017373
758.000000	100.001870
757.000000	100.003631
756.000000	100.003962
755.000000	100.012330
754.000000	100.017949
753.000000	100.027209
752.000000	99.995483
751.000000	100.045964
750.000000	99.987215
749.000000	100.027241
748.000000	100.017431
747.000000	100.002648
746.000000	99.992053
745.000000	100.002650
744.000000	100.012924
743.000000	100.028619
742.000000	99.994918
741.000000	99.956792
740.000000	100.004755
739.000000	100.008736
738.000000	100.016486
737.000000	99.991922
736.000000	99.976864
735.000000	99.984168
734.000000	99.996235
733.000000	100.003102
732.000000	100.021056
731.000000	100.016076
730.000000	100.014971
729.000000	100.034729
728.000000	100.015424
727.000000	99.997891
726.000000	100.013211
725.000000	100.044204
724.000000	100.000889
723.000000	99.993779
722.000000	99.973664
721.000000	100.002446
720.000000	100.008118
719.000000	100.007563
718.000000	100.031376
717.000000	100.011240
716.000000	100.025267
715.000000	100.015697
714.000000	100.027729
713.000000	100.012923
712.000000	100.006017
711.000000	99.985958
710.000000	99.989187
709.000000	100.032676
708.000000	100.019744
707.000000	100.008368
706.000000	100.011608
705.000000	100.016189
704.000000	100.029375
703.000000	100.017201
702.000000	99.985590
701.000000	99.990169
700.000000	99.983798
699.000000	99.994187
698.000000	100.007493
697.000000	100.015774
696.000000	100.019134
695.000000	100.012311
694.000000	100.016231
693.000000	100.018586
692.000000	100.003471
691.000000	100.005824
690.000000	100.027553
689.000000	100.038538
688.000000	100.002465
687.000000	99.991821
686.000000	100.014684
685.000000	100.015472
684.000000	99.988338
683.000000	99.982056
682.000000	99.999551
681.000000	99.991698
680.000000	100.002020
679.000000	100.031888
678.000000	100.034814
677.000000	100.025157
676.000000	100.027973
675.000000	100.012360
674.000000	100.001686
673.000000	99.997752
672.000000	100.020462
671.000000	100.030928
670.000000	100.018558
669.000000	100.020135
668.000000	100.014064
667.000000	100.016432
666.000000	100.001576
665.000000	100.005967
664.000000	100.005742
663.000000	99.992455
662.000000	100.012390
661.000000	100.019153
660.000000	100.022875
659.000000	100.035275
658.000000	100.029310
657.000000	100.014883
656.000000	100.000338
655.000000	99.994249
654.000000	100.019964
653.000000	100.028431
652.000000	100.023133
651.000000	100.027764
650.000000	100.011626
649.000000	99.991422
648.000000	100.007112
647.000000	100.023263
646.000000	100.020670
645.000000	100.009940
644.000000	99.999322
643.000000	100.016272
642.000000	99.997401
641.000000	99.994688
640.000000	100.016620
639.000000	100.009385
638.000000	100.004976
637.000000	100.007691
636.000000	100.017872
635.000000	100.026813
634.000000	100.007807
633.000000	100.004414
632.000000	100.022073
631.000000	100.005886
630.000000	100.005094
629.000000	100.015965
628.000000	100.010418
627.000000	100.018122
626.000000	100.005324
625.000000	100.000340
624.000000	100.010763
623.000000	100.005666
622.000000	99.992521
621.000000	99.994107
620.000000	100.006008
619.000000	100.016326
618.000000	99.991270
617.000000	99.989681
616.000000	100.009980
615.000000	99.996711
614.000000	99.993194
613.000000	100.005786
612.000000	100.010100
611.000000	100.023155
610.000000	100.014302
609.000000	100.018846
608.000000	100.003860
607.000000	100.003520
606.000000	100.021919
605.000000	99.997956
604.000000	100.002045
603.000000	99.994206
602.000000	100.012273
601.000000	100.026482
600.000000	100.017050
599.000000	100.001137
598.000000	100.002047
597.000000	100.015466
596.000000	100.017290
595.000000	100.004437
594.000000	100.001252
593.000000	100.009673
592.000000	100.000228
591.000000	100.006603
590.000000	100.006489
589.000000	100.015828
588.000000	100.004100
587.000000	99.998975
586.000000	100.000114
585.000000	100.011625
584.000000	100.002622
583.000000	100.012312
582.000000	100.022807
581.000000	100.014369
580.000000	100.011179
579.000000	100.010383
578.000000	100.008558
577.000000	99.995664
576.000000	99.991098
575.000000	99.993721
574.000000	99.994634
573.000000	99.992234
572.000000	100.002970
571.000000	100.028451
570.000000	100.010741
569.000000	100.033261
568.000000	100.022289
567.000000	100.012690
566.000000	100.017265
565.000000	100.024587
564.000000	100.030543
563.000000	100.025514
562.000000	99.996455
561.000000	99.993254
560.000000	100.020358
559.000000	100.017159
558.000000	100.002059
557.000000	99.995423
556.000000	100.011217
555.000000	100.021066
554.000000	100.011108
553.000000	100.020273
552.000000	100.022797
551.000000	100.013980
550.000000	100.015816
549.000000	99.995988
548.000000	100.001949
547.000000	100.013994
546.000000	100.007456
545.000000	100.022146
544.000000	100.030879
543.000000	100.022273
542.000000	100.009532
541.000000	100.018725
540.000000	99.986557
539.000000	100.015059
538.000000	100.005864
537.000000	99.999310
536.000000	100.027384
535.000000	100.031539
534.000000	100.001036
533.000000	100.017049
532.000000	100.015787
531.000000	100.003689
530.000000	100.012801
529.000000	100.004153
528.000000	100.032213
527.000000	100.022988
526.000000	100.008321
525.000000	99.999884
524.000000	100.003702
523.000000	100.002663
522.000000	100.007878
521.000000	100.015072
520.000000	100.024365
519.000000	100.017535
518.000000	100.016386
517.000000	100.005350
516.000000	100.001281
515.000000	100.020156
514.000000	100.012126
513.000000	100.001167
512.000000	100.016351
511.000000	100.019285
510.000000	100.019764
509.000000	100.011818
508.000000	100.009015
507.000000	100.008901
506.000000	99.999297
505.000000	100.002695
504.000000	100.005507
503.000000	100.008672
502.000000	100.002461
501.000000	100.021676
500.000000	100.008434
499.000000	100.005269
498.000000	100.018265
497.000000	100.007841
496.000000	100.022466
495.000000	100.017894
494.000000	100.027478
493.000000	99.999416
492.000000	100.001753
491.000000	100.009697
490.000000	99.981432
489.000000	99.987388
488.000000	100.019852
487.000000	100.015529
486.000000	100.030705
485.000000	100.024746
484.000000	100.038174
483.000000	100.004201
482.000000	99.988450
481.000000	99.993586
480.000000	100.001751
479.000000	100.017765
478.000000	100.032515
477.000000	99.994266
476.000000	100.008196
475.000000	99.994259
474.000000	100.001993
473.000000	100.018300
472.000000	99.998122
471.000000	100.019497
470.000000	100.028207
469.000000	100.001646
468.000000	100.003294
467.000000	100.003061
466.000000	99.991638
465.000000	100.009781
464.000000	100.008487
463.000000	100.001533
462.000000	100.010851
461.000000	100.020059
460.000000	100.017109
459.000000	100.015578
458.000000	100.012863
457.000000	99.990678
456.000000	100.014753
455.000000	99.997522
454.000000	100.015580
453.000000	100.000354
452.000000	100.010505
451.000000	100.015344
450.000000	100.026086
449.000000	100.009088
448.000000	100.029282
447.000000	99.988551
446.000000	100.020780
445.000000	100.036720
444.000000	100.030809
443.000000	99.985127
442.000000	100.006614
441.000000	100.003190
440.000000	100.035701
439.000000	99.998699
438.000000	99.985807
437.000000	100.005916
436.000000	100.007456
435.000000	100.024393
434.000000	99.993842
433.000000	100.001185
432.000000	99.985307
431.000000	99.995259
430.000000	99.995613
429.000000	99.993121
428.000000	99.997746
427.000000	99.989794
426.000000	99.999169
425.000000	100.031833
424.000000	100.014139
423.000000	99.999762
422.000000	99.992987
421.000000	100.011773
420.000000	100.004282
419.000000	100.007852
418.000000	100.023330
417.000000	100.017621
416.000000	100.006430
415.000000	100.002382
414.000000	100.020733
413.000000	100.014064
412.000000	100.019913
411.000000	100.006083
410.000000	99.986879
409.000000	100.000597
408.000000	100.005729
407.000000	100.030087
406.000000	99.996417
405.000000	99.968944
404.000000	99.989605
403.000000	100.021037
402.000000	100.008847
401.000000	99.977759
400.000000	99.989114
399.000000	99.992821
398.000000	99.992339
397.000000	99.993533
396.000000	100.013774
395.000000	100.025520
394.000000	100.020611
393.000000	100.013783
392.000000	100.004915
391.000000	100.013670
390.000000	100.046062
389.000000	100.024835
388.000000	100.019201
387.000000	100.008281
386.000000	99.981156
385.000000	100.011886
384.000000	100.029780
383.000000	100.006004
382.000000	99.993396
381.000000	99.994596
380.000000	99.997838
379.000000	99.961461
378.000000	99.984641
377.000000	100.013093
376.000000	99.970452
375.000000	99.999046
374.000000	100.058190
373.000000	100.033721
372.000000	99.983251
371.000000	100.004550
370.000000	100.004672
369.000000	100.017983
368.000000	100.049073
367.000000	100.011521
366.000000	99.978875
365.000000	99.988468
364.000000	100.016711
363.000000	100.042093
362.000000	100.014315
361.000000	99.975938
360.000000	100.000120
359.000000	100.020470
358.000000	100.018908
357.000000	100.024096
356.000000	100.019039
355.000000	100.017718
354.000000	100.005545
353.000000	99.996986
352.000000	100.007719
351.000000	100.007600
350.000000	99.987815
349.000000	99.959941
348.000000	100.007001
347.000000	100.055918
346.000000	100.059433
345.000000	100.001570
344.000000	99.968244
343.000000	99.995773
342.000000	99.989370
341.000000	99.963397
340.000000	99.985019
339.000000	99.983566
338.000000	99.994924
337.000000	100.022729
336.000000	100.019713
335.000000	100.022375
334.000000	100.017414
333.000000	100.048877
332.000000	100.001936
331.000000	99.974236
330.000000	100.011013
329.000000	100.007747
328.000000	99.972769
327.000000	100.022036
326.000000	100.025310
325.000000	100.024826
324.000000	99.974938
323.000000	99.988132
322.000000	99.997577
321.000000	99.995880
320.000000	99.979886
319.000000	99.966180
318.000000	99.966599
317.000000	100.013393
316.000000	99.995897
315.000000	99.968014
314.000000	99.968718
313.000000	99.960722
312.000000	99.957677
311.000000	99.932649
310.000000	99.983302
309.000000	100.005327
308.000000	100.005088
307.000000	100.026308
306.000000	99.982172
305.000000	99.956199
304.000000	99.962126
303.000000	99.980803
302.000000	99.997325
301.000000	100.015692
300.000000	99.995984
299.000000	99.954583
298.000000	99.981840
297.000000	100.006709
296.000000	99.966073
295.000000	99.987053
294.000000	99.975186
293.000000	99.946537
292.000000	99.975139
291.000000	99.965807
290.000000	99.977060
289.000000	99.976183
288.000000	99.974566
287.000000	99.954248
286.000000	99.977594
285.000000	99.958224
284.000000	99.954615
283.000000	99.954455
282.000000	99.925292
281.000000	99.943157
280.000000	99.948560
279.000000	99.950131
278.000000	99.965830
277.000000	99.982407
276.000000	99.974962
275.000000	99.950280
274.000000	99.965258
273.000000	99.968971
272.000000	99.967969
271.000000	99.958521
270.000000	99.944963
269.000000	99.938989
268.000000	99.928023
267.000000	99.937835
266.000000	99.957339
265.000000	99.939673
264.000000	99.922633
263.000000	99.954593
262.000000	99.981337
261.000000	99.967652
260.000000	99.950739
259.000000	99.938062
258.000000	99.950880
257.000000	99.908763
256.000000	99.965823
255.000000	99.965208
254.000000	99.947464
253.000000	99.927503
252.000000	99.935346
251.000000	99.929180
250.000000	99.939859
249.000000	99.948199
248.000000	99.934340
247.000000	99.915322
246.000000	99.938865
245.000000	99.929884
244.000000	99.935639
243.000000	99.926800
242.000000	99.945136
241.000000	99.954809
240.000000	99.930408
239.000000	99.912331
238.000000	99.930713
237.000000	99.878664
236.000000	99.937854
235.000000	99.934371
234.000000	99.914998
233.000000	99.916110
232.000000	99.926588
231.000000	99.925956
230.000000	99.918575
229.000000	99.919604
228.000000	99.928458
227.000000	99.936197
226.000000	99.928099
225.000000	99.906677
224.000000	99.901801
223.000000	99.887472
222.000000	99.924755
221.000000	99.904557
220.000000	99.919386
219.000000	99.913054
218.000000	99.887533
217.000000	99.884330
216.000000	99.863097
215.000000	99.879385
214.000000	99.887589
213.000000	99.897756
212.000000	99.909902
211.000000	99.895131
210.000000	99.859435
209.000000	99.846670
208.000000	99.840241
207.000000	99.881597
206.000000	99.834291
205.000000	99.849926
204.000000	99.844240
203.000000	99.837412
202.000000	99.835291
201.000000	99.823837
200.000000	99.856935
199.000000	99.832047
198.000000	99.862229
197.000000	99.837773
196.000000	99.762691
195.000000	99.750834
194.000000	99.718212
193.000000	99.670099
192.000000	99.602772
191.000000	99.528654
190.000000	99.322742
