PE UV       SUBTECH     SPECTRUM    ASCII       PEDS        4.00        
   -1
C2F6_9bar.Sample.Cycle3.ASC
26/05/13
20:24:47.00
26/05/13
20:24:47.00
Jinky Agarwala

190.000000
1
Lambda 850+
860L2410213
PerkinElmer UV WinLab 7.4.0.367 / 2.02.11 Lambda 800 UV/VIS, May 23 2018 11:23:04

0
0
1
0
0
UV/VIS
1
1
10
RBeamAtt,SBeamAtt,uv/vis detector
0
0
0
0
Fix
 
0
0.2
0
0
0
 
 
 
0
 
0
319.2
0
Front
100
 
S:100 R:100
 
0
0
0
 
0
 
 
 
0
 
 
0
0
0
0
0
 
 
 
 
0
0


0
0

0


#HDR
-1
-1
#GR
nm
%T
1.0
0.0
800.000000
-1.000000
611
8
100.263510
97.108290
#DATA
800.000000	100.200117
799.000000	100.237304
798.000000	100.200477
797.000000	100.263510
796.000000	100.164274
795.000000	100.235253
794.000000	100.160672
793.000000	100.128002
792.000000	100.149086
791.000000	100.177690
790.000000	100.184280
789.000000	100.191753
788.000000	100.183514
787.000000	100.156265
786.000000	100.174732
785.000000	100.198062
784.000000	100.143135
783.000000	100.159649
782.000000	100.216745
781.000000	100.226805
780.000000	100.170015
779.000000	100.185783
778.000000	100.203367
777.000000	100.187727
776.000000	100.201100
775.000000	100.200455
774.000000	100.185318
773.000000	100.217560
772.000000	100.193367
771.000000	100.160206
770.000000	100.169356
769.000000	100.223077
768.000000	100.221453
767.000000	100.213858
766.000000	100.224989
765.000000	100.167264
764.000000	100.202153
763.000000	100.169635
762.000000	100.170364
761.000000	100.156578
760.000000	100.190848
759.000000	100.188570
758.000000	100.156067
757.000000	100.164170
756.000000	100.195674
755.000000	100.161830
754.000000	100.207900
753.000000	100.197515
752.000000	100.164274
751.000000	100.182863
750.000000	100.138761
749.000000	100.189805
748.000000	100.179938
747.000000	100.194861
746.000000	100.183328
745.000000	100.195761
744.000000	100.224018
743.000000	100.210610
742.000000	100.147170
741.000000	100.124209
740.000000	100.183218
739.000000	100.162778
738.000000	100.169945
737.000000	100.150501
736.000000	100.156198
735.000000	100.155665
734.000000	100.151153
733.000000	100.154970
732.000000	100.170108
731.000000	100.187371
730.000000	100.189527
729.000000	100.219470
728.000000	100.171330
727.000000	100.167249
726.000000	100.185845
725.000000	100.186146
724.000000	100.175714
723.000000	100.175522
722.000000	100.168686
721.000000	100.177432
720.000000	100.162906
719.000000	100.177286
718.000000	100.194485
717.000000	100.200317
716.000000	100.182432
715.000000	100.158970
714.000000	100.182078
713.000000	100.196859
712.000000	100.188309
711.000000	100.169513
710.000000	100.191185
709.000000	100.211111
708.000000	100.189186
707.000000	100.199058
706.000000	100.213636
705.000000	100.211691
704.000000	100.233995
703.000000	100.184410
702.000000	100.173475
701.000000	100.163882
700.000000	100.150512
699.000000	100.156045
698.000000	100.172218
697.000000	100.188276
696.000000	100.185074
695.000000	100.192939
694.000000	100.199696
693.000000	100.202202
692.000000	100.172338
691.000000	100.171583
690.000000	100.181447
689.000000	100.207925
688.000000	100.183175
687.000000	100.163250
686.000000	100.177326
685.000000	100.169969
684.000000	100.163382
683.000000	100.172828
682.000000	100.170183
681.000000	100.163693
680.000000	100.182837
679.000000	100.206488
678.000000	100.202145
677.000000	100.176100
676.000000	100.185924
675.000000	100.192023
674.000000	100.170920
673.000000	100.182531
672.000000	100.182473
671.000000	100.188940
670.000000	100.197616
669.000000	100.187968
668.000000	100.195100
667.000000	100.205735
666.000000	100.190121
665.000000	100.189136
664.000000	100.170797
663.000000	100.161701
662.000000	100.172106
661.000000	100.186013
660.000000	100.186718
659.000000	100.188549
658.000000	100.188713
657.000000	100.170813
656.000000	100.167553
655.000000	100.177718
654.000000	100.182949
653.000000	100.201501
652.000000	100.193187
651.000000	100.172340
650.000000	100.169421
649.000000	100.143801
648.000000	100.154436
647.000000	100.177750
646.000000	100.190774
645.000000	100.193719
644.000000	100.185832
643.000000	100.193113
642.000000	100.160903
641.000000	100.146578
640.000000	100.173883
639.000000	100.177634
638.000000	100.179345
637.000000	100.200858
636.000000	100.178153
635.000000	100.160310
634.000000	100.162133
633.000000	100.189786
632.000000	100.210993
631.000000	100.190281
630.000000	100.172639
629.000000	100.181846
628.000000	100.171900
627.000000	100.167856
626.000000	100.162201
625.000000	100.152458
624.000000	100.164732
623.000000	100.165211
622.000000	100.161603
621.000000	100.150396
620.000000	100.157121
619.000000	100.176298
618.000000	100.164842
617.000000	100.163850
616.000000	100.172497
615.000000	100.164345
614.000000	100.159830
613.000000	100.154754
612.000000	100.174878
611.000000	100.181493
610.000000	100.166635
609.000000	100.189258
608.000000	100.175405
607.000000	100.149419
606.000000	100.181142
605.000000	100.168437
604.000000	100.184374
603.000000	100.170192
602.000000	100.175800
601.000000	100.182876
600.000000	100.186640
599.000000	100.187110
598.000000	100.185679
597.000000	100.175474
596.000000	100.186091
595.000000	100.177467
594.000000	100.183419
593.000000	100.176043
592.000000	100.163101
591.000000	100.177138
590.000000	100.168840
589.000000	100.161131
588.000000	100.184631
587.000000	100.152977
586.000000	100.162470
585.000000	100.172781
584.000000	100.189551
583.000000	100.186393
582.000000	100.200929
581.000000	100.180415
580.000000	100.186730
579.000000	100.188941
578.000000	100.187025
577.000000	100.187146
576.000000	100.171993
575.000000	100.158453
574.000000	100.154016
573.000000	100.168216
572.000000	100.161267
571.000000	100.183845
570.000000	100.180087
569.000000	100.188481
568.000000	100.176480
567.000000	100.176170
566.000000	100.163735
565.000000	100.174513
564.000000	100.192408
563.000000	100.185116
562.000000	100.171546
561.000000	100.149675
560.000000	100.168010
559.000000	100.173993
558.000000	100.175172
557.000000	100.167649
556.000000	100.168597
555.000000	100.155592
554.000000	100.153332
553.000000	100.185665
552.000000	100.170579
551.000000	100.169705
550.000000	100.167672
549.000000	100.175036
548.000000	100.170286
547.000000	100.172741
546.000000	100.160369
545.000000	100.173843
544.000000	100.193653
543.000000	100.179907
542.000000	100.160775
541.000000	100.172434
540.000000	100.154189
539.000000	100.191515
538.000000	100.162585
537.000000	100.154441
536.000000	100.163728
535.000000	100.193035
534.000000	100.176852
533.000000	100.171757
532.000000	100.173081
531.000000	100.165422
530.000000	100.165028
529.000000	100.157713
528.000000	100.186810
527.000000	100.183907
526.000000	100.168263
525.000000	100.172292
524.000000	100.161749
523.000000	100.167765
522.000000	100.165792
521.000000	100.166137
520.000000	100.172647
519.000000	100.186382
518.000000	100.161183
517.000000	100.170976
516.000000	100.173450
515.000000	100.177211
514.000000	100.166385
513.000000	100.164528
512.000000	100.164907
511.000000	100.182327
510.000000	100.151563
509.000000	100.153989
508.000000	100.151842
507.000000	100.173454
506.000000	100.166470
505.000000	100.166740
504.000000	100.163463
503.000000	100.154096
502.000000	100.170723
501.000000	100.172703
500.000000	100.159653
499.000000	100.154220
498.000000	100.174340
497.000000	100.151548
496.000000	100.177035
495.000000	100.149702
494.000000	100.153408
493.000000	100.150301
492.000000	100.168594
491.000000	100.161219
490.000000	100.141306
489.000000	100.160102
488.000000	100.158119
487.000000	100.152487
486.000000	100.166131
485.000000	100.153613
484.000000	100.162617
483.000000	100.129297
482.000000	100.155512
481.000000	100.160704
480.000000	100.148821
479.000000	100.169703
478.000000	100.165033
477.000000	100.151308
476.000000	100.158421
475.000000	100.150310
474.000000	100.145470
473.000000	100.154138
472.000000	100.152110
471.000000	100.164669
470.000000	100.172765
469.000000	100.152736
468.000000	100.157890
467.000000	100.150568
466.000000	100.129904
465.000000	100.158851
464.000000	100.172108
463.000000	100.165799
462.000000	100.150151
461.000000	100.154687
460.000000	100.151624
459.000000	100.173478
458.000000	100.160024
457.000000	100.142775
456.000000	100.150013
455.000000	100.138070
454.000000	100.166417
453.000000	100.178570
452.000000	100.168555
451.000000	100.149662
450.000000	100.161001
449.000000	100.150017
448.000000	100.191161
447.000000	100.147894
446.000000	100.172848
445.000000	100.154671
444.000000	100.173402
443.000000	100.130076
442.000000	100.158849
441.000000	100.148410
440.000000	100.148715
439.000000	100.136685
438.000000	100.147607
437.000000	100.156999
436.000000	100.149709
435.000000	100.198107
434.000000	100.162588
433.000000	100.151986
432.000000	100.160315
431.000000	100.128715
430.000000	100.136586
429.000000	100.128092
428.000000	100.145107
427.000000	100.134462
426.000000	100.132488
425.000000	100.147289
424.000000	100.129388
423.000000	100.140588
422.000000	100.128378
421.000000	100.146031
420.000000	100.140817
419.000000	100.122413
418.000000	100.169734
417.000000	100.163949
416.000000	100.124796
415.000000	100.132460
414.000000	100.137147
413.000000	100.141956
412.000000	100.170992
411.000000	100.164111
410.000000	100.127512
409.000000	100.118955
408.000000	100.112668
407.000000	100.113305
406.000000	100.123960
405.000000	100.130793
404.000000	100.138833
403.000000	100.140447
402.000000	100.120872
401.000000	100.116584
400.000000	100.134461
399.000000	100.145263
398.000000	100.142813
397.000000	100.141666
396.000000	100.135106
395.000000	100.157432
394.000000	100.153861
393.000000	100.136633
392.000000	100.125023
391.000000	100.129261
390.000000	100.166136
389.000000	100.146011
388.000000	100.144851
387.000000	100.153386
386.000000	100.119424
385.000000	100.129901
384.000000	100.133288
383.000000	100.105906
382.000000	100.080564
381.000000	100.084664
380.000000	100.106425
379.000000	100.115377
378.000000	100.123468
377.000000	100.154497
376.000000	100.143092
375.000000	100.132190
374.000000	100.184965
373.000000	100.193360
372.000000	100.148950
371.000000	100.152171
370.000000	100.137046
369.000000	100.134156
368.000000	100.135222
367.000000	100.084851
366.000000	100.058094
365.000000	100.091654
364.000000	100.147755
363.000000	100.166807
362.000000	100.161555
361.000000	100.129095
360.000000	100.110253
359.000000	100.105599
358.000000	100.122600
357.000000	100.121445
356.000000	100.103511
355.000000	100.115225
354.000000	100.105719
353.000000	100.091393
352.000000	100.071401
351.000000	100.064782
350.000000	100.069249
349.000000	100.052849
348.000000	100.097777
347.000000	100.158574
346.000000	100.141697
345.000000	100.062428
344.000000	100.064961
343.000000	100.104833
342.000000	100.093133
341.000000	100.081420
340.000000	100.085656
339.000000	100.101020
338.000000	100.107452
337.000000	100.110262
336.000000	100.145491
335.000000	100.150820
334.000000	100.101705
333.000000	100.104046
332.000000	100.080208
331.000000	100.045721
330.000000	100.100934
329.000000	100.083283
328.000000	100.055429
327.000000	100.038017
326.000000	100.041295
325.000000	100.045776
324.000000	100.021188
323.000000	100.062127
322.000000	100.118499
321.000000	100.070762
320.000000	100.071974
319.000000	100.060754
318.000000	100.033401
317.000000	100.072154
316.000000	100.036326
315.000000	100.033072
314.000000	100.025847
313.000000	100.036377
312.000000	100.044500
311.000000	100.007860
310.000000	100.036179
309.000000	100.061143
308.000000	100.057667
307.000000	100.058436
306.000000	100.060398
305.000000	100.014317
304.000000	100.017359
303.000000	100.034870
302.000000	100.043887
301.000000	100.038682
300.000000	100.023124
299.000000	100.000731
298.000000	100.018403
297.000000	100.053183
296.000000	99.984013
295.000000	100.002076
294.000000	99.997555
293.000000	99.980915
292.000000	100.031107
291.000000	100.001961
290.000000	99.989327
289.000000	99.994230
288.000000	99.984641
287.000000	99.995449
286.000000	100.016004
285.000000	99.987430
284.000000	99.993587
283.000000	99.954826
282.000000	99.930479
281.000000	99.956750
280.000000	99.982689
279.000000	99.974138
278.000000	99.968182
277.000000	99.963204
276.000000	99.955750
275.000000	99.924862
274.000000	99.912772
273.000000	99.933475
272.000000	99.933082
271.000000	99.894317
270.000000	99.910674
269.000000	99.864806
268.000000	99.904529
267.000000	99.900411
266.000000	99.902240
265.000000	99.911188
264.000000	99.884945
263.000000	99.879204
262.000000	99.920869
261.000000	99.920498
260.000000	99.890655
259.000000	99.874135
258.000000	99.870671
257.000000	99.861279
256.000000	99.869877
255.000000	99.871145
254.000000	99.865493
253.000000	99.829682
252.000000	99.855926
251.000000	99.828594
250.000000	99.858018
249.000000	99.821794
248.000000	99.823586
247.000000	99.816902
246.000000	99.820060
245.000000	99.819454
244.000000	99.789992
243.000000	99.801879
242.000000	99.787449
241.000000	99.762719
240.000000	99.769094
239.000000	99.759096
238.000000	99.774357
237.000000	99.729658
236.000000	99.768298
235.000000	99.737851
234.000000	99.716537
233.000000	99.710965
232.000000	99.734567
231.000000	99.695760
230.000000	99.695205
229.000000	99.669360
228.000000	99.658094
227.000000	99.660861
226.000000	99.657213
225.000000	99.628555
224.000000	99.619913
223.000000	99.607142
222.000000	99.596005
221.000000	99.584921
220.000000	99.565408
219.000000	99.556149
218.000000	99.530092
217.000000	99.492608
216.000000	99.497855
215.000000	99.413345
214.000000	99.439718
213.000000	99.428376
212.000000	99.427637
211.000000	99.415092
210.000000	99.386474
209.000000	99.322848
208.000000	99.323550
207.000000	99.330655
206.000000	99.296062
205.000000	99.240585
204.000000	99.253197
203.000000	99.249369
202.000000	99.186032
201.000000	99.097899
200.000000	99.138512
199.000000	99.120239
198.000000	99.058361
197.000000	98.913746
196.000000	98.877968
195.000000	98.764055
194.000000	98.522096
193.000000	98.387286
192.000000	98.161652
191.000000	97.812693
190.000000	97.108290
