PE UV       SUBTECH     SPECTRUM    ASCII       PEDS        4.00        
   -1
C2F6_6bar.Sample.Cycle2.ASC
26/05/13
19:11:31.00
26/05/13
19:11:31.00
Jinky Agarwala

190.000000
1
Lambda 850+
860L2410213
PerkinElmer UV WinLab 7.4.0.367 / 2.02.11 Lambda 800 UV/VIS, May 23 2018 11:23:04

0
0
1
0
0
UV/VIS
1
1
10
RBeamAtt,SBeamAtt,uv/vis detector
0
0
0
0
Fix
 
0
0.2
0
0
0
 
 
 
0
 
0
319.2
0
Front
100
 
S:100 R:100
 
0
0
0
 
0
 
 
 
0
 
 
0
0
0
0
0
 
 
 
 
0
0


0
0

0


#HDR
-1
-1
#GR
nm
%T
1.0
0.0
800.000000
-1.000000
611
8
100.162723
98.234193
#DATA
800.000000	100.096522
799.000000	100.081968
798.000000	100.140693
797.000000	100.137692
796.000000	100.092812
795.000000	100.131192
794.000000	100.118625
793.000000	100.083119
792.000000	100.068658
791.000000	100.112718
790.000000	100.075566
789.000000	100.079952
788.000000	100.072118
787.000000	100.083043
786.000000	100.086111
785.000000	100.086693
784.000000	100.031335
783.000000	100.046519
782.000000	100.129960
781.000000	100.162723
780.000000	100.108897
779.000000	100.116894
778.000000	100.142543
777.000000	100.127558
776.000000	100.143189
775.000000	100.097545
774.000000	100.116645
773.000000	100.147669
772.000000	100.088522
771.000000	100.074186
770.000000	100.087254
769.000000	100.150692
768.000000	100.111220
767.000000	100.109837
766.000000	100.094715
765.000000	100.064645
764.000000	100.114528
763.000000	100.091899
762.000000	100.091278
761.000000	100.058785
760.000000	100.105538
759.000000	100.130405
758.000000	100.126921
757.000000	100.096609
756.000000	100.087822
755.000000	100.091814
754.000000	100.086772
753.000000	100.111921
752.000000	100.094862
751.000000	100.084542
750.000000	100.058304
749.000000	100.109405
748.000000	100.116612
747.000000	100.088493
746.000000	100.085207
745.000000	100.087336
744.000000	100.143601
743.000000	100.099669
742.000000	100.054470
741.000000	100.063652
740.000000	100.096751
739.000000	100.081610
738.000000	100.080989
737.000000	100.085653
736.000000	100.108154
735.000000	100.094329
734.000000	100.077957
733.000000	100.087731
732.000000	100.091980
731.000000	100.121625
730.000000	100.102471
729.000000	100.102856
728.000000	100.086664
727.000000	100.085678
726.000000	100.087594
725.000000	100.104068
724.000000	100.072307
723.000000	100.058544
722.000000	100.065785
721.000000	100.089161
720.000000	100.086513
719.000000	100.063396
718.000000	100.082000
717.000000	100.090254
716.000000	100.072349
715.000000	100.051988
714.000000	100.077063
713.000000	100.091689
712.000000	100.089697
711.000000	100.108439
710.000000	100.090632
709.000000	100.085760
708.000000	100.094147
707.000000	100.095958
706.000000	100.094987
705.000000	100.091889
704.000000	100.118394
703.000000	100.110579
702.000000	100.094836
701.000000	100.080991
700.000000	100.066261
699.000000	100.072992
698.000000	100.094943
697.000000	100.117127
696.000000	100.121406
695.000000	100.101506
694.000000	100.085968
693.000000	100.093488
692.000000	100.077043
691.000000	100.087696
690.000000	100.073923
689.000000	100.085926
688.000000	100.078312
687.000000	100.076527
686.000000	100.097182
685.000000	100.094739
684.000000	100.079056
683.000000	100.073797
682.000000	100.095581
681.000000	100.086839
680.000000	100.105841
679.000000	100.109363
678.000000	100.102532
677.000000	100.084569
676.000000	100.086502
675.000000	100.086629
674.000000	100.089449
673.000000	100.082499
672.000000	100.096689
671.000000	100.114152
670.000000	100.103476
669.000000	100.087628
668.000000	100.090687
667.000000	100.108720
666.000000	100.112114
665.000000	100.108978
664.000000	100.088382
663.000000	100.082314
662.000000	100.100808
661.000000	100.112217
660.000000	100.090260
659.000000	100.085089
658.000000	100.107771
657.000000	100.115567
656.000000	100.098773
655.000000	100.080402
654.000000	100.074217
653.000000	100.084391
652.000000	100.098625
651.000000	100.089951
650.000000	100.086686
649.000000	100.093685
648.000000	100.100135
647.000000	100.103443
646.000000	100.094540
645.000000	100.091946
644.000000	100.091730
643.000000	100.096500
642.000000	100.078756
641.000000	100.073797
640.000000	100.089429
639.000000	100.079376
638.000000	100.072597
637.000000	100.084369
636.000000	100.082459
635.000000	100.086886
634.000000	100.084517
633.000000	100.097213
632.000000	100.109006
631.000000	100.092707
630.000000	100.090565
629.000000	100.090583
628.000000	100.079948
627.000000	100.077132
626.000000	100.082913
625.000000	100.074417
624.000000	100.073302
623.000000	100.074787
622.000000	100.080461
621.000000	100.074461
620.000000	100.099419
619.000000	100.102264
618.000000	100.064508
617.000000	100.064293
616.000000	100.071562
615.000000	100.069299
614.000000	100.082694
613.000000	100.081121
612.000000	100.079325
611.000000	100.082517
610.000000	100.088652
609.000000	100.098319
608.000000	100.084580
607.000000	100.079819
606.000000	100.090741
605.000000	100.082117
604.000000	100.080202
603.000000	100.084187
602.000000	100.102616
601.000000	100.098542
600.000000	100.083545
599.000000	100.084120
598.000000	100.093692
597.000000	100.089613
596.000000	100.086107
595.000000	100.072011
594.000000	100.076235
593.000000	100.078747
592.000000	100.089006
591.000000	100.087317
590.000000	100.073433
589.000000	100.065136
588.000000	100.080641
587.000000	100.069369
586.000000	100.069044
585.000000	100.090380
584.000000	100.089248
583.000000	100.087439
582.000000	100.094877
581.000000	100.084505
580.000000	100.077567
579.000000	100.085115
578.000000	100.103725
577.000000	100.090834
576.000000	100.087195
575.000000	100.095209
574.000000	100.071813
573.000000	100.083594
572.000000	100.083717
571.000000	100.098264
570.000000	100.098842
569.000000	100.117958
568.000000	100.097841
567.000000	100.087227
566.000000	100.081067
565.000000	100.083826
564.000000	100.107414
563.000000	100.115326
562.000000	100.092292
561.000000	100.087472
560.000000	100.093326
559.000000	100.086253
558.000000	100.079977
557.000000	100.083310
556.000000	100.084699
555.000000	100.081631
554.000000	100.087258
553.000000	100.073418
552.000000	100.085347
551.000000	100.076659
550.000000	100.077131
549.000000	100.060982
548.000000	100.085544
547.000000	100.098300
546.000000	100.074564
545.000000	100.087323
544.000000	100.090111
543.000000	100.077611
542.000000	100.066377
541.000000	100.072719
540.000000	100.064686
539.000000	100.090354
538.000000	100.089341
537.000000	100.072448
536.000000	100.081691
535.000000	100.096805
534.000000	100.085663
533.000000	100.104252
532.000000	100.079742
531.000000	100.091760
530.000000	100.094911
529.000000	100.080183
528.000000	100.108761
527.000000	100.085369
526.000000	100.095919
525.000000	100.097362
524.000000	100.085156
523.000000	100.086140
522.000000	100.096857
521.000000	100.087648
520.000000	100.079478
519.000000	100.084191
518.000000	100.079603
517.000000	100.088745
516.000000	100.096154
515.000000	100.095888
514.000000	100.081968
513.000000	100.076663
512.000000	100.076731
511.000000	100.071061
510.000000	100.065724
509.000000	100.075591
508.000000	100.071531
507.000000	100.091470
506.000000	100.067361
505.000000	100.086709
504.000000	100.072533
503.000000	100.088122
502.000000	100.058587
501.000000	100.092913
500.000000	100.071686
499.000000	100.067332
498.000000	100.083365
497.000000	100.089642
496.000000	100.087874
495.000000	100.080816
494.000000	100.092489
493.000000	100.074449
492.000000	100.049655
491.000000	100.090890
490.000000	100.054654
489.000000	100.085364
488.000000	100.096109
487.000000	100.087686
486.000000	100.096083
485.000000	100.092915
484.000000	100.076814
483.000000	100.054729
482.000000	100.039199
481.000000	100.062392
480.000000	100.067466
479.000000	100.076203
478.000000	100.080236
477.000000	100.082383
476.000000	100.070253
475.000000	100.048854
474.000000	100.065292
473.000000	100.082113
472.000000	100.062910
471.000000	100.082687
470.000000	100.079096
469.000000	100.074310
468.000000	100.077533
467.000000	100.069810
466.000000	100.066778
465.000000	100.095334
464.000000	100.080160
463.000000	100.067570
462.000000	100.052370
461.000000	100.073863
460.000000	100.086255
459.000000	100.069037
458.000000	100.085086
457.000000	100.069735
456.000000	100.084389
455.000000	100.056762
454.000000	100.074593
453.000000	100.078132
452.000000	100.095373
451.000000	100.065389
450.000000	100.069759
449.000000	100.080851
448.000000	100.106384
447.000000	100.056419
446.000000	100.086660
445.000000	100.106380
444.000000	100.114972
443.000000	100.061025
442.000000	100.034368
441.000000	100.064752
440.000000	100.083933
439.000000	100.091754
438.000000	100.090244
437.000000	100.069094
436.000000	100.065446
435.000000	100.077916
434.000000	100.058025
433.000000	100.058165
432.000000	100.053201
431.000000	100.055231
430.000000	100.052287
429.000000	100.055388
428.000000	100.064545
427.000000	100.076310
426.000000	100.060664
425.000000	100.060341
424.000000	100.072120
423.000000	100.050982
422.000000	100.056344
421.000000	100.073729
420.000000	100.063273
419.000000	100.047228
418.000000	100.079273
417.000000	100.084654
416.000000	100.069662
415.000000	100.076593
414.000000	100.076497
413.000000	100.066627
412.000000	100.079176
411.000000	100.091239
410.000000	100.075625
409.000000	100.058583
408.000000	100.052037
407.000000	100.080829
406.000000	100.070578
405.000000	100.056259
404.000000	100.062368
403.000000	100.066817
402.000000	100.040649
401.000000	100.024752
400.000000	100.053952
399.000000	100.075384
398.000000	100.083078
397.000000	100.084305
396.000000	100.089352
395.000000	100.090697
394.000000	100.078009
393.000000	100.085216
392.000000	100.070123
391.000000	100.058635
390.000000	100.066214
389.000000	100.077145
388.000000	100.093727
387.000000	100.076333
386.000000	100.073094
385.000000	100.073355
384.000000	100.057998
383.000000	100.042026
382.000000	100.017169
381.000000	100.030743
380.000000	100.053933
379.000000	100.036504
378.000000	100.042624
377.000000	100.063799
376.000000	100.030858
375.000000	100.054880
374.000000	100.128806
373.000000	100.108458
372.000000	100.077167
371.000000	100.072314
370.000000	100.070440
369.000000	100.081884
368.000000	100.108105
367.000000	100.076690
366.000000	100.020405
365.000000	100.051533
364.000000	100.098343
363.000000	100.103788
362.000000	100.073379
361.000000	100.056186
360.000000	100.086421
359.000000	100.089705
358.000000	100.076715
357.000000	100.086144
356.000000	100.053382
355.000000	100.038690
354.000000	100.044241
353.000000	100.036292
352.000000	100.036907
351.000000	100.049823
350.000000	100.023043
349.000000	100.018461
348.000000	100.048285
347.000000	100.068840
346.000000	100.082264
345.000000	100.006400
344.000000	99.995412
343.000000	100.036837
342.000000	100.030320
341.000000	100.037086
340.000000	100.043009
339.000000	100.037701
338.000000	100.055479
337.000000	100.069035
336.000000	100.106670
335.000000	100.074382
334.000000	100.042327
333.000000	100.094246
332.000000	100.048149
331.000000	100.042093
330.000000	100.081328
329.000000	100.058225
328.000000	100.033403
327.000000	100.066228
326.000000	100.053889
325.000000	100.030639
324.000000	99.986077
323.000000	99.996004
322.000000	100.043619
321.000000	100.037562
320.000000	100.053071
319.000000	100.007126
318.000000	100.000723
317.000000	100.041265
316.000000	100.013154
315.000000	100.004587
314.000000	100.021861
313.000000	100.042420
312.000000	100.041598
311.000000	99.992866
310.000000	99.996975
309.000000	100.003390
308.000000	100.005936
307.000000	100.040856
306.000000	100.026439
305.000000	100.035065
304.000000	100.030834
303.000000	100.036692
302.000000	99.993800
301.000000	100.008880
300.000000	99.998783
299.000000	99.970047
298.000000	100.004266
297.000000	99.977068
296.000000	99.974615
295.000000	100.012092
294.000000	100.001711
293.000000	99.971372
292.000000	99.984079
291.000000	99.990441
290.000000	99.977918
289.000000	99.966362
288.000000	99.965105
287.000000	99.964088
286.000000	99.996061
285.000000	100.010475
284.000000	99.986804
283.000000	99.996050
282.000000	99.970981
281.000000	99.973803
280.000000	99.989737
279.000000	99.972776
278.000000	99.948002
277.000000	99.986124
276.000000	99.976325
275.000000	99.933293
274.000000	99.965754
273.000000	99.962642
272.000000	99.949222
271.000000	99.942998
270.000000	99.950927
269.000000	99.922586
268.000000	99.925164
267.000000	99.932364
266.000000	99.971145
265.000000	99.945892
264.000000	99.934823
263.000000	99.916401
262.000000	99.938785
261.000000	99.921120
260.000000	99.916156
259.000000	99.929481
258.000000	99.923646
257.000000	99.898819
256.000000	99.938481
255.000000	99.914635
254.000000	99.932312
253.000000	99.883310
252.000000	99.901344
251.000000	99.910452
250.000000	99.907371
249.000000	99.892432
248.000000	99.910678
247.000000	99.888953
246.000000	99.914485
245.000000	99.897732
244.000000	99.878813
243.000000	99.884213
242.000000	99.896314
241.000000	99.889548
240.000000	99.864383
239.000000	99.862849
238.000000	99.877981
237.000000	99.839362
236.000000	99.869836
235.000000	99.873997
234.000000	99.850025
233.000000	99.816224
232.000000	99.859649
231.000000	99.844459
230.000000	99.814898
229.000000	99.844225
228.000000	99.833274
227.000000	99.837056
226.000000	99.822768
225.000000	99.813477
224.000000	99.789169
223.000000	99.792380
222.000000	99.813560
221.000000	99.781276
220.000000	99.812233
219.000000	99.788506
218.000000	99.742628
217.000000	99.766650
216.000000	99.728587
215.000000	99.693853
214.000000	99.695717
213.000000	99.715778
212.000000	99.705459
211.000000	99.727009
210.000000	99.698955
209.000000	99.653880
208.000000	99.630768
207.000000	99.653240
206.000000	99.623044
205.000000	99.594079
204.000000	99.633050
203.000000	99.623097
202.000000	99.583969
201.000000	99.540851
200.000000	99.558153
199.000000	99.532352
198.000000	99.494975
197.000000	99.445014
196.000000	99.392973
195.000000	99.333616
194.000000	99.171370
193.000000	99.088191
192.000000	98.908623
191.000000	98.706731
190.000000	98.234193
