PE UV       SUBTECH     SPECTRUM    ASCII       PEDS        4.00        
   -1
C2F6_6bar.Sample.Cycle3.ASC
26/05/13
19:11:31.00
26/05/13
19:11:31.00
Jinky Agarwala

190.000000
1
Lambda 850+
860L2410213
PerkinElmer UV WinLab 7.4.0.367 / 2.02.11 Lambda 800 UV/VIS, May 23 2018 11:23:04

0
0
1
0
0
UV/VIS
1
1
10
RBeamAtt,SBeamAtt,uv/vis detector
0
0
0
0
Fix
 
0
0.2
0
0
0
 
 
 
0
 
0
319.2
0
Front
100
 
S:100 R:100
 
0
0
0
 
0
 
 
 
0
 
 
0
0
0
0
0
 
 
 
 
0
0


0
0

0


#HDR
-1
-1
#GR
nm
%T
1.0
0.0
800.000000
-1.000000
611
8
100.166393
98.243697
#DATA
800.000000	100.093910
799.000000	100.120067
798.000000	100.166393
797.000000	100.136493
796.000000	100.134208
795.000000	100.135224
794.000000	100.061655
793.000000	100.057192
792.000000	100.091326
791.000000	100.059957
790.000000	100.098900
789.000000	100.092277
788.000000	100.096667
787.000000	100.081734
786.000000	100.078908
785.000000	100.135499
784.000000	100.058302
783.000000	100.048921
782.000000	100.111051
781.000000	100.115152
780.000000	100.125625
779.000000	100.080152
778.000000	100.099988
777.000000	100.084893
776.000000	100.138373
775.000000	100.137395
774.000000	100.099012
773.000000	100.114367
772.000000	100.072088
771.000000	100.088541
770.000000	100.088569
769.000000	100.079404
768.000000	100.106394
767.000000	100.149558
766.000000	100.099873
765.000000	100.112387
764.000000	100.124959
763.000000	100.080480
762.000000	100.077658
761.000000	100.092079
760.000000	100.117521
759.000000	100.074219
758.000000	100.078088
757.000000	100.075813
756.000000	100.096516
755.000000	100.108767
754.000000	100.083909
753.000000	100.115997
752.000000	100.100371
751.000000	100.111878
750.000000	100.090927
749.000000	100.116684
748.000000	100.115509
747.000000	100.079445
746.000000	100.085318
745.000000	100.086011
744.000000	100.109358
743.000000	100.116134
742.000000	100.070381
741.000000	100.057021
740.000000	100.067670
739.000000	100.056618
738.000000	100.063729
737.000000	100.077242
736.000000	100.071955
735.000000	100.076393
734.000000	100.068877
733.000000	100.052727
732.000000	100.045436
731.000000	100.087588
730.000000	100.086391
729.000000	100.098195
728.000000	100.101311
727.000000	100.098662
726.000000	100.105912
725.000000	100.115286
724.000000	100.081304
723.000000	100.049879
722.000000	100.073675
721.000000	100.095609
720.000000	100.063272
719.000000	100.088310
718.000000	100.094238
717.000000	100.072225
716.000000	100.088489
715.000000	100.104867
714.000000	100.100783
713.000000	100.103164
712.000000	100.080895
711.000000	100.058399
710.000000	100.086172
709.000000	100.088437
708.000000	100.090354
707.000000	100.087255
706.000000	100.109497
705.000000	100.108525
704.000000	100.108900
703.000000	100.092596
702.000000	100.068474
701.000000	100.066245
700.000000	100.061233
699.000000	100.078581
698.000000	100.090806
697.000000	100.087594
696.000000	100.086830
695.000000	100.091434
694.000000	100.089214
693.000000	100.082739
692.000000	100.093056
691.000000	100.109199
690.000000	100.081651
689.000000	100.094216
688.000000	100.084585
687.000000	100.069132
686.000000	100.085413
685.000000	100.078706
684.000000	100.073337
683.000000	100.059553
682.000000	100.084026
681.000000	100.065522
680.000000	100.076322
679.000000	100.098360
678.000000	100.083890
677.000000	100.085130
676.000000	100.099983
675.000000	100.078540
674.000000	100.069784
673.000000	100.082499
672.000000	100.088370
671.000000	100.094358
670.000000	100.093128
669.000000	100.103377
668.000000	100.106213
667.000000	100.094764
666.000000	100.079695
665.000000	100.086912
664.000000	100.094349
663.000000	100.080963
662.000000	100.078844
661.000000	100.096443
660.000000	100.103106
659.000000	100.082835
658.000000	100.089058
657.000000	100.097527
656.000000	100.092007
655.000000	100.077244
654.000000	100.072300
653.000000	100.081571
652.000000	100.089259
651.000000	100.094578
650.000000	100.092894
649.000000	100.087364
648.000000	100.076879
647.000000	100.083793
646.000000	100.080986
645.000000	100.075793
644.000000	100.081337
643.000000	100.088138
642.000000	100.066327
641.000000	100.069503
640.000000	100.086941
639.000000	100.086499
638.000000	100.081531
637.000000	100.083578
636.000000	100.085174
635.000000	100.086208
634.000000	100.077955
633.000000	100.096194
632.000000	100.105157
631.000000	100.079463
630.000000	100.081735
629.000000	100.093754
628.000000	100.087649
627.000000	100.087666
626.000000	100.069774
625.000000	100.070339
624.000000	100.082366
623.000000	100.092464
622.000000	100.092134
621.000000	100.078088
620.000000	100.086496
619.000000	100.079363
618.000000	100.074598
617.000000	100.078467
616.000000	100.070428
615.000000	100.077692
614.000000	100.077817
613.000000	100.079192
612.000000	100.093170
611.000000	100.098975
610.000000	100.094668
609.000000	100.094800
608.000000	100.079698
607.000000	100.073801
606.000000	100.079839
605.000000	100.080186
604.000000	100.094857
603.000000	100.088391
602.000000	100.091252
601.000000	100.081607
600.000000	100.086045
599.000000	100.074685
598.000000	100.062765
597.000000	100.073806
596.000000	100.092591
595.000000	100.096242
594.000000	100.081014
593.000000	100.086258
592.000000	100.083201
591.000000	100.082763
590.000000	100.065122
589.000000	100.077434
588.000000	100.082577
587.000000	100.067433
586.000000	100.086590
585.000000	100.091519
584.000000	100.086398
583.000000	100.089263
582.000000	100.097956
581.000000	100.077663
580.000000	100.093194
579.000000	100.091390
578.000000	100.098362
577.000000	100.082390
576.000000	100.070646
575.000000	100.090186
574.000000	100.079577
573.000000	100.092844
572.000000	100.072981
571.000000	100.102720
570.000000	100.101470
569.000000	100.110871
568.000000	100.084354
567.000000	100.086427
566.000000	100.087013
565.000000	100.088057
564.000000	100.101695
563.000000	100.100567
562.000000	100.088060
561.000000	100.078096
560.000000	100.080059
559.000000	100.089570
558.000000	100.081350
557.000000	100.093724
556.000000	100.081838
555.000000	100.073846
554.000000	100.091724
553.000000	100.074678
552.000000	100.080993
551.000000	100.079639
550.000000	100.073349
549.000000	100.077259
548.000000	100.083366
547.000000	100.078342
546.000000	100.060683
545.000000	100.088929
544.000000	100.083913
543.000000	100.083008
542.000000	100.070626
541.000000	100.074786
540.000000	100.068937
539.000000	100.093343
538.000000	100.086467
537.000000	100.062788
536.000000	100.080886
535.000000	100.092316
534.000000	100.077143
533.000000	100.095037
532.000000	100.091265
531.000000	100.084959
530.000000	100.076806
529.000000	100.081798
528.000000	100.104143
527.000000	100.095072
526.000000	100.072691
525.000000	100.077589
524.000000	100.090825
523.000000	100.094940
522.000000	100.089210
521.000000	100.075475
520.000000	100.080638
519.000000	100.079430
518.000000	100.079487
517.000000	100.074439
516.000000	100.080788
515.000000	100.082955
514.000000	100.073807
513.000000	100.068262
512.000000	100.093432
511.000000	100.083450
510.000000	100.085371
509.000000	100.091855
508.000000	100.075043
507.000000	100.076362
506.000000	100.071813
505.000000	100.083546
504.000000	100.064096
503.000000	100.063982
502.000000	100.080968
501.000000	100.087523
500.000000	100.100735
499.000000	100.068503
498.000000	100.095542
497.000000	100.077003
496.000000	100.097586
495.000000	100.083506
494.000000	100.090151
493.000000	100.077137
492.000000	100.061456
491.000000	100.070329
490.000000	100.066449
489.000000	100.080109
488.000000	100.088752
487.000000	100.064334
486.000000	100.118265
485.000000	100.081009
484.000000	100.082418
483.000000	100.069083
482.000000	100.055182
481.000000	100.046182
480.000000	100.061513
479.000000	100.077138
478.000000	100.101172
477.000000	100.075244
476.000000	100.065219
475.000000	100.067364
474.000000	100.060486
473.000000	100.085515
472.000000	100.077463
471.000000	100.081747
470.000000	100.070046
469.000000	100.093358
468.000000	100.074356
467.000000	100.081817
466.000000	100.085386
465.000000	100.081546
464.000000	100.069786
463.000000	100.066272
462.000000	100.065109
461.000000	100.096281
460.000000	100.079883
459.000000	100.076000
458.000000	100.067975
457.000000	100.052508
456.000000	100.088756
455.000000	100.062191
454.000000	100.081438
453.000000	100.041898
452.000000	100.074717
451.000000	100.079316
450.000000	100.072710
449.000000	100.073061
448.000000	100.103669
447.000000	100.063383
446.000000	100.077333
445.000000	100.098942
444.000000	100.082983
443.000000	100.044854
442.000000	100.054446
441.000000	100.080349
440.000000	100.094691
439.000000	100.072363
438.000000	100.069782
437.000000	100.061404
436.000000	100.048877
435.000000	100.079337
434.000000	100.067261
433.000000	100.067168
432.000000	100.043841
431.000000	100.046105
430.000000	100.070783
429.000000	100.055269
428.000000	100.056714
427.000000	100.056491
426.000000	100.082152
425.000000	100.075307
424.000000	100.075447
423.000000	100.060371
422.000000	100.045408
421.000000	100.083599
420.000000	100.065057
419.000000	100.056269
418.000000	100.074750
417.000000	100.062746
416.000000	100.067280
415.000000	100.076593
414.000000	100.068633
413.000000	100.059595
412.000000	100.060455
411.000000	100.079551
410.000000	100.063339
409.000000	100.071707
408.000000	100.071969
407.000000	100.061726
406.000000	100.049321
405.000000	100.043359
404.000000	100.044924
403.000000	100.051039
402.000000	100.049736
401.000000	100.041492
400.000000	100.071178
399.000000	100.067247
398.000000	100.050397
397.000000	100.059995
396.000000	100.063480
395.000000	100.077997
394.000000	100.079687
393.000000	100.063283
392.000000	100.061972
391.000000	100.062232
390.000000	100.068374
389.000000	100.074865
388.000000	100.073086
387.000000	100.055449
386.000000	100.051850
385.000000	100.065911
384.000000	100.060640
383.000000	100.037223
382.000000	100.035420
381.000000	100.038069
380.000000	100.031952
379.000000	100.040573
378.000000	100.084415
377.000000	100.094270
376.000000	100.057308
375.000000	100.064067
374.000000	100.128806
373.000000	100.099251
372.000000	100.039122
371.000000	100.047052
370.000000	100.045283
369.000000	100.074092
368.000000	100.088668
367.000000	100.060007
366.000000	100.048972
365.000000	100.079642
364.000000	100.082353
363.000000	100.056885
362.000000	100.047276
361.000000	100.048847
360.000000	100.048507
359.000000	100.060927
358.000000	100.050100
357.000000	100.033253
356.000000	100.020847
355.000000	100.028445
354.000000	100.039660
353.000000	100.057874
352.000000	100.058496
351.000000	100.051029
350.000000	100.030161
349.000000	100.013997
348.000000	100.029574
347.000000	100.054227
346.000000	100.082747
345.000000	100.028980
344.000000	100.035982
343.000000	100.057851
342.000000	100.037809
341.000000	100.010631
340.000000	100.022229
339.000000	100.048818
338.000000	100.044842
337.000000	100.048119
336.000000	100.071234
335.000000	100.071721
334.000000	100.073649
333.000000	100.077067
332.000000	100.032543
331.000000	100.018748
330.000000	100.087016
329.000000	100.086188
328.000000	100.025294
327.000000	100.070466
326.000000	100.046502
325.000000	100.011020
324.000000	100.013197
323.000000	100.018408
322.000000	100.057069
321.000000	100.065310
320.000000	100.044105
319.000000	100.028022
318.000000	100.015073
317.000000	100.006033
316.000000	100.020275
315.000000	99.989982
314.000000	99.991304
313.000000	100.038069
312.000000	100.063122
311.000000	99.970496
310.000000	99.981608
309.000000	100.010412
308.000000	100.034285
307.000000	100.066801
306.000000	100.026924
305.000000	100.015045
304.000000	99.988104
303.000000	100.015795
302.000000	99.998784
301.000000	100.001095
300.000000	100.017404
299.000000	99.967977
298.000000	99.987812
297.000000	100.035008
296.000000	100.000000
295.000000	99.980579
294.000000	100.002689
293.000000	99.995473
292.000000	100.021432
291.000000	99.983945
290.000000	100.007361
289.000000	99.995458
288.000000	99.945076
287.000000	99.971221
286.000000	99.992244
285.000000	99.987184
284.000000	99.985324
283.000000	99.963466
282.000000	99.941345
281.000000	99.974173
280.000000	99.954372
279.000000	99.960773
278.000000	99.950850
277.000000	99.978567
276.000000	99.954758
275.000000	99.941972
274.000000	99.945157
273.000000	99.940673
272.000000	99.922157
271.000000	99.929337
270.000000	99.939994
269.000000	99.924450
268.000000	99.961339
267.000000	99.937089
266.000000	99.932837
265.000000	99.933080
264.000000	99.916166
263.000000	99.957330
262.000000	99.937665
261.000000	99.954464
260.000000	99.940289
259.000000	99.921272
258.000000	99.933470
257.000000	99.905655
256.000000	99.927420
255.000000	99.927433
254.000000	99.911198
253.000000	99.895476
252.000000	99.885584
251.000000	99.874485
250.000000	99.905511
249.000000	99.911269
248.000000	99.905847
247.000000	99.881772
246.000000	99.923643
245.000000	99.896124
244.000000	99.873007
243.000000	99.909889
242.000000	99.896684
241.000000	99.893488
240.000000	99.855653
239.000000	99.862358
238.000000	99.878717
237.000000	99.841199
236.000000	99.876320
235.000000	99.857743
234.000000	99.867978
233.000000	99.841867
232.000000	99.856229
231.000000	99.837616
230.000000	99.835437
229.000000	99.840798
228.000000	99.813183
227.000000	99.820369
226.000000	99.813427
225.000000	99.777650
224.000000	99.760425
223.000000	99.795719
222.000000	99.779098
221.000000	99.784259
220.000000	99.769621
219.000000	99.775763
218.000000	99.758784
217.000000	99.735126
216.000000	99.716497
215.000000	99.726059
214.000000	99.719922
213.000000	99.682078
212.000000	99.719497
211.000000	99.704729
210.000000	99.672743
209.000000	99.628089
208.000000	99.642420
207.000000	99.657919
206.000000	99.637006
205.000000	99.594996
204.000000	99.627520
203.000000	99.631960
202.000000	99.582506
201.000000	99.509125
200.000000	99.545636
199.000000	99.535055
198.000000	99.484950
197.000000	99.440949
196.000000	99.382130
195.000000	99.324678
194.000000	99.203220
193.000000	99.084013
192.000000	98.915292
191.000000	98.686869
190.000000	98.243697
