PE UV       SUBTECH     SPECTRUM    ASCII       PEDS        4.00        
   -1
C2F6_6bar.Sample.Cycle7.ASC
26/05/13
19:11:31.00
26/05/13
19:11:31.00
Jinky Agarwala

190.000000
1
Lambda 850+
860L2410213
PerkinElmer UV WinLab 7.4.0.367 / 2.02.11 Lambda 800 UV/VIS, May 23 2018 11:23:04

0
0
1
0
0
UV/VIS
1
1
10
RBeamAtt,SBeamAtt,uv/vis detector
0
0
0
0
Fix
 
0
0.2
0
0
0
 
 
 
0
 
0
319.2
0
Front
100
 
S:100 R:100
 
0
0
0
 
0
 
 
 
0
 
 
0
0
0
0
0
 
 
 
 
0
0


0
0

0


#HDR
-1
-1
#GR
nm
%T
1.0
0.0
800.000000
-1.000000
611
8
100.141071
98.241849
#DATA
800.000000	100.021546
799.000000	100.081641
798.000000	100.104322
797.000000	100.137474
796.000000	100.141071
795.000000	100.116809
794.000000	100.070478
793.000000	100.059807
792.000000	100.070184
791.000000	100.059630
790.000000	100.056592
789.000000	100.064245
788.000000	100.095794
787.000000	100.059582
786.000000	100.081746
785.000000	100.073809
784.000000	100.055682
783.000000	100.076876
782.000000	100.122636
781.000000	100.133852
780.000000	100.075550
779.000000	100.090759
778.000000	100.086970
777.000000	100.078985
776.000000	100.091190
775.000000	100.079810
774.000000	100.095945
773.000000	100.097278
772.000000	100.085125
771.000000	100.065967
770.000000	100.096681
769.000000	100.116803
768.000000	100.087857
767.000000	100.123004
766.000000	100.080447
765.000000	100.085717
764.000000	100.097618
763.000000	100.068183
762.000000	100.082161
761.000000	100.084607
760.000000	100.125326
759.000000	100.111823
758.000000	100.073799
757.000000	100.077133
756.000000	100.084630
755.000000	100.101832
754.000000	100.067061
753.000000	100.093745
752.000000	100.054978
751.000000	100.092589
750.000000	100.035820
749.000000	100.098266
748.000000	100.109221
747.000000	100.070287
746.000000	100.077813
745.000000	100.076847
744.000000	100.116096
743.000000	100.111493
742.000000	100.081098
741.000000	100.060779
740.000000	100.100399
739.000000	100.069225
738.000000	100.077117
737.000000	100.076689
736.000000	100.088560
735.000000	100.046500
734.000000	100.052599
733.000000	100.061811
732.000000	100.073141
731.000000	100.103442
730.000000	100.085614
729.000000	100.085768
728.000000	100.072127
727.000000	100.082126
726.000000	100.061282
725.000000	100.080856
724.000000	100.049871
723.000000	100.044325
722.000000	100.044783
721.000000	100.075709
720.000000	100.082732
719.000000	100.086085
718.000000	100.087118
717.000000	100.088696
716.000000	100.079918
715.000000	100.051097
714.000000	100.069824
713.000000	100.085562
712.000000	100.085129
711.000000	100.076453
710.000000	100.072015
709.000000	100.067248
708.000000	100.071056
707.000000	100.082122
706.000000	100.102800
705.000000	100.099258
704.000000	100.105549
703.000000	100.070033
702.000000	100.075847
701.000000	100.061218
700.000000	100.050618
699.000000	100.078134
698.000000	100.085326
697.000000	100.089831
696.000000	100.080900
695.000000	100.079459
694.000000	100.097609
693.000000	100.085762
692.000000	100.069204
691.000000	100.081872
690.000000	100.096099
689.000000	100.093656
688.000000	100.059826
687.000000	100.048964
686.000000	100.072634
685.000000	100.080500
684.000000	100.062011
683.000000	100.063142
682.000000	100.086157
681.000000	100.065186
680.000000	100.086087
679.000000	100.099707
678.000000	100.078500
677.000000	100.064241
676.000000	100.081335
675.000000	100.099214
674.000000	100.069671
673.000000	100.069236
672.000000	100.079038
671.000000	100.084686
670.000000	100.085255
669.000000	100.089428
668.000000	100.096425
667.000000	100.094877
666.000000	100.079358
665.000000	100.069688
664.000000	100.062261
663.000000	100.064523
662.000000	100.086729
661.000000	100.090810
660.000000	100.076175
659.000000	100.081821
658.000000	100.095484
657.000000	100.087380
656.000000	100.070922
655.000000	100.067885
654.000000	100.084256
653.000000	100.095109
652.000000	100.081360
651.000000	100.074602
650.000000	100.085331
649.000000	100.075287
648.000000	100.064687
647.000000	100.082325
646.000000	100.083583
645.000000	100.074890
644.000000	100.073090
643.000000	100.081584
642.000000	100.054463
641.000000	100.054698
640.000000	100.081967
639.000000	100.093170
638.000000	100.081192
637.000000	100.079054
636.000000	100.084156
635.000000	100.075121
634.000000	100.068677
633.000000	100.085896
632.000000	100.101195
631.000000	100.076633
630.000000	100.053094
629.000000	100.072920
628.000000	100.083685
627.000000	100.075320
626.000000	100.069207
625.000000	100.068074
624.000000	100.075568
623.000000	100.081246
622.000000	100.075135
621.000000	100.047487
620.000000	100.068018
619.000000	100.085031
618.000000	100.052151
617.000000	100.051706
616.000000	100.066458
615.000000	100.058865
614.000000	100.060234
613.000000	100.059564
612.000000	100.066842
611.000000	100.075480
610.000000	100.083544
609.000000	100.088101
608.000000	100.076860
607.000000	100.082090
606.000000	100.086880
605.000000	100.074508
604.000000	100.067252
603.000000	100.069531
602.000000	100.090798
601.000000	100.082971
600.000000	100.078316
599.000000	100.073207
598.000000	100.065494
597.000000	100.082562
596.000000	100.101691
595.000000	100.079064
594.000000	100.085565
593.000000	100.078178
592.000000	100.067380
591.000000	100.061019
590.000000	100.060796
589.000000	100.071399
588.000000	100.079160
587.000000	100.068458
586.000000	100.068019
585.000000	100.083997
584.000000	100.076596
583.000000	100.076381
582.000000	100.087008
581.000000	100.069794
580.000000	100.067643
579.000000	100.084658
578.000000	100.073715
577.000000	100.070636
576.000000	100.038576
575.000000	100.061075
574.000000	100.061994
573.000000	100.088048
572.000000	100.077436
571.000000	100.082267
570.000000	100.085130
569.000000	100.095555
568.000000	100.078410
567.000000	100.065849
566.000000	100.077751
565.000000	100.082911
564.000000	100.102839
563.000000	100.099995
562.000000	100.071020
561.000000	100.080155
560.000000	100.068622
559.000000	100.057998
558.000000	100.072540
557.000000	100.058820
556.000000	100.075657
555.000000	100.073503
554.000000	100.095503
553.000000	100.082696
552.000000	100.069767
551.000000	100.075513
550.000000	100.063493
549.000000	100.069006
548.000000	100.088182
547.000000	100.073295
546.000000	100.061028
545.000000	100.078258
544.000000	100.074500
543.000000	100.078300
542.000000	100.068215
541.000000	100.074786
540.000000	100.072154
539.000000	100.091734
538.000000	100.069679
537.000000	100.052324
536.000000	100.070301
535.000000	100.084143
534.000000	100.080597
533.000000	100.082135
532.000000	100.078474
531.000000	100.075391
530.000000	100.077382
529.000000	100.062993
528.000000	100.084168
527.000000	100.086986
526.000000	100.083092
525.000000	100.077011
524.000000	100.070462
523.000000	100.075604
522.000000	100.061404
521.000000	100.073388
520.000000	100.075997
519.000000	100.080708
518.000000	100.074606
517.000000	100.076997
516.000000	100.072174
515.000000	100.087848
514.000000	100.063662
513.000000	100.062194
512.000000	100.067388
511.000000	100.073983
510.000000	100.076951
509.000000	100.084016
508.000000	100.070828
507.000000	100.067227
506.000000	100.070173
505.000000	100.071125
504.000000	100.051793
503.000000	100.066794
502.000000	100.077218
501.000000	100.071120
500.000000	100.081993
499.000000	100.066864
498.000000	100.084067
497.000000	100.045523
496.000000	100.083896
495.000000	100.069588
494.000000	100.079160
493.000000	100.069424
492.000000	100.051992
491.000000	100.066006
490.000000	100.045662
489.000000	100.072052
488.000000	100.079877
487.000000	100.060714
486.000000	100.087327
485.000000	100.075406
484.000000	100.071211
483.000000	100.050295
482.000000	100.064631
481.000000	100.054112
480.000000	100.086491
479.000000	100.068255
478.000000	100.070060
477.000000	100.079574
476.000000	100.075991
475.000000	100.067247
474.000000	100.045833
473.000000	100.067216
472.000000	100.043192
471.000000	100.070472
470.000000	100.068636
469.000000	100.045268
468.000000	100.050473
467.000000	100.065219
466.000000	100.047934
465.000000	100.077422
464.000000	100.079570
463.000000	100.061084
462.000000	100.051191
461.000000	100.074925
460.000000	100.060886
459.000000	100.070571
458.000000	100.069745
457.000000	100.049912
456.000000	100.086986
455.000000	100.057824
454.000000	100.073885
453.000000	100.079076
452.000000	100.067281
451.000000	100.083093
450.000000	100.090652
449.000000	100.060196
448.000000	100.093751
447.000000	100.043082
446.000000	100.080285
445.000000	100.095872
444.000000	100.078733
443.000000	100.065746
442.000000	100.053737
441.000000	100.064516
440.000000	100.076013
439.000000	100.048596
438.000000	100.033708
437.000000	100.055488
436.000000	100.056096
435.000000	100.075903
434.000000	100.051275
433.000000	100.079725
432.000000	100.054623
431.000000	100.048357
430.000000	100.041142
429.000000	100.045069
428.000000	100.075105
427.000000	100.044504
426.000000	100.039058
425.000000	100.079702
424.000000	100.062259
423.000000	100.042069
422.000000	100.046478
421.000000	100.051610
420.000000	100.043292
419.000000	100.064121
418.000000	100.069512
417.000000	100.057984
416.000000	100.054896
415.000000	100.069923
414.000000	100.055407
413.000000	100.069488
412.000000	100.091696
411.000000	100.070725
410.000000	100.040317
409.000000	100.040805
408.000000	100.052873
407.000000	100.079277
406.000000	100.061263
405.000000	100.044912
404.000000	100.027838
403.000000	100.035261
402.000000	100.048660
401.000000	100.034796
400.000000	100.034572
399.000000	100.034461
398.000000	100.067037
397.000000	100.081551
396.000000	100.085279
395.000000	100.083269
394.000000	100.064828
393.000000	100.061365
392.000000	100.044351
391.000000	100.044965
390.000000	100.057098
389.000000	100.052310
388.000000	100.058804
387.000000	100.070572
386.000000	100.069614
385.000000	100.051264
384.000000	100.057278
383.000000	100.033621
382.000000	100.010926
381.000000	100.030743
380.000000	100.041681
379.000000	100.069178
378.000000	100.078700
377.000000	100.072130
376.000000	100.044321
375.000000	100.047841
374.000000	100.102519
373.000000	100.076052
372.000000	100.034336
371.000000	100.050763
370.000000	100.030548
369.000000	100.055149
368.000000	100.095507
367.000000	100.059407
366.000000	99.997479
365.000000	100.042644
364.000000	100.098704
363.000000	100.071798
362.000000	100.070131
361.000000	100.054381
360.000000	100.047062
359.000000	100.055629
358.000000	100.063829
357.000000	100.086385
356.000000	100.073385
355.000000	100.070027
354.000000	100.041468
353.000000	100.002170
352.000000	100.015197
351.000000	100.036311
350.000000	100.015201
349.000000	100.002172
348.000000	100.036938
347.000000	100.070290
346.000000	100.057379
345.000000	100.040210
344.000000	100.045883
343.000000	100.029590
342.000000	100.010388
341.000000	100.012926
340.000000	100.037452
339.000000	100.049060
338.000000	100.049314
337.000000	100.047756
336.000000	100.093608
335.000000	100.062287
334.000000	99.992018
333.000000	100.061944
332.000000	100.054319
331.000000	100.006774
330.000000	100.057123
329.000000	100.066093
328.000000	100.027836
327.000000	100.071071
326.000000	100.069390
325.000000	100.013684
324.000000	99.981113
323.000000	100.026522
322.000000	100.050162
321.000000	100.034291
320.000000	100.041924
319.000000	100.004952
318.000000	99.981189
317.000000	100.013393
316.000000	99.980449
315.000000	99.970308
314.000000	100.002778
313.000000	100.046771
312.000000	100.039663
311.000000	99.963120
310.000000	100.004235
309.000000	100.006901
308.000000	100.004361
307.000000	100.032491
306.000000	100.003881
305.000000	99.986532
304.000000	99.976450
303.000000	100.003766
302.000000	99.989788
301.000000	99.991120
300.000000	100.000974
299.000000	99.969925
298.000000	100.004875
297.000000	100.009758
296.000000	99.984989
295.000000	99.989984
294.000000	99.978975
293.000000	99.971005
292.000000	100.000612
291.000000	99.995465
290.000000	99.978409
289.000000	99.983549
288.000000	99.958469
287.000000	99.946746
286.000000	99.992983
285.000000	99.992360
284.000000	99.982857
283.000000	100.009627
282.000000	99.974686
281.000000	99.966265
280.000000	99.965377
279.000000	99.978097
278.000000	99.924479
277.000000	99.941523
276.000000	99.959592
275.000000	99.931681
274.000000	99.960295
273.000000	99.935709
272.000000	99.903162
271.000000	99.921514
270.000000	99.932167
269.000000	99.919977
268.000000	99.917333
267.000000	99.928883
266.000000	99.939180
265.000000	99.937060
264.000000	99.915419
263.000000	99.942774
262.000000	99.945877
261.000000	99.926719
260.000000	99.921132
259.000000	99.940923
258.000000	99.908102
257.000000	99.893349
256.000000	99.920211
255.000000	99.942096
254.000000	99.926847
253.000000	99.907393
252.000000	99.916608
251.000000	99.893833
250.000000	99.905139
249.000000	99.859840
248.000000	99.913899
247.000000	99.885858
246.000000	99.878596
245.000000	99.874607
244.000000	99.853242
243.000000	99.880880
242.000000	99.862656
241.000000	99.880559
240.000000	99.838316
239.000000	99.860025
238.000000	99.870623
237.000000	99.823690
236.000000	99.855768
235.000000	99.849921
234.000000	99.822790
233.000000	99.832953
232.000000	99.839983
231.000000	99.826620
230.000000	99.841306
229.000000	99.841165
228.000000	99.826046
227.000000	99.823314
226.000000	99.826455
225.000000	99.781097
224.000000	99.793857
223.000000	99.783724
222.000000	99.802899
221.000000	99.778418
220.000000	99.784199
219.000000	99.768018
218.000000	99.751520
217.000000	99.720307
216.000000	99.721283
215.000000	99.679455
214.000000	99.694703
213.000000	99.679534
212.000000	99.697164
211.000000	99.694997
210.000000	99.689447
209.000000	99.636987
208.000000	99.640090
207.000000	99.658699
206.000000	99.617303
205.000000	99.590147
204.000000	99.604479
203.000000	99.589230
202.000000	99.568004
201.000000	99.525724
200.000000	99.566228
199.000000	99.531542
198.000000	99.493756
197.000000	99.419535
196.000000	99.360988
195.000000	99.314793
194.000000	99.169885
193.000000	99.109618
192.000000	98.908223
191.000000	98.720461
190.000000	98.241849
