PE UV       SUBTECH     SPECTRUM    ASCII       PEDS        4.00        
   -1
C2F6_9bar.Sample.Cycle2.ASC
26/05/13
20:24:47.00
26/05/13
20:24:47.00
Jinky Agarwala

190.000000
1
Lambda 850+
860L2410213
PerkinElmer UV WinLab 7.4.0.367 / 2.02.11 Lambda 800 UV/VIS, May 23 2018 11:23:04

0
0
1
0
0
UV/VIS
1
1
10
RBeamAtt,SBeamAtt,uv/vis detector
0
0
0
0
Fix
 
0
0.2
0
0
0
 
 
 
0
 
0
319.2
0
Front
100
 
S:100 R:100
 
0
0
0
 
0
 
 
 
0
 
 
0
0
0
0
0
 
 
 
 
0
0


0
0

0


#HDR
-1
-1
#GR
nm
%T
1.0
0.0
800.000000
-1.000000
611
8
100.241569
97.113702
#DATA
800.000000	100.191085
799.000000	100.207151
798.000000	100.217574
797.000000	100.230830
796.000000	100.234864
795.000000	100.206595
794.000000	100.154790
793.000000	100.147284
792.000000	100.154862
791.000000	100.231433
790.000000	100.190495
789.000000	100.194262
788.000000	100.161148
787.000000	100.202861
786.000000	100.159562
785.000000	100.201883
784.000000	100.165845
783.000000	100.163471
782.000000	100.218822
781.000000	100.241569
780.000000	100.177012
779.000000	100.186549
778.000000	100.201288
777.000000	100.146812
776.000000	100.212923
775.000000	100.157649
774.000000	100.183675
773.000000	100.191378
772.000000	100.177262
771.000000	100.203490
770.000000	100.167821
769.000000	100.194562
768.000000	100.203246
767.000000	100.218247
766.000000	100.188113
765.000000	100.192616
764.000000	100.217636
763.000000	100.158106
762.000000	100.171023
761.000000	100.175477
760.000000	100.209097
759.000000	100.214849
758.000000	100.173114
757.000000	100.209613
756.000000	100.179496
755.000000	100.193866
754.000000	100.181362
753.000000	100.184516
752.000000	100.205260
751.000000	100.215048
750.000000	100.129282
749.000000	100.174364
748.000000	100.196266
747.000000	100.183055
746.000000	100.163351
745.000000	100.187149
744.000000	100.223355
743.000000	100.230168
742.000000	100.187608
741.000000	100.154267
740.000000	100.182886
739.000000	100.160013
738.000000	100.186430
737.000000	100.177060
736.000000	100.174352
735.000000	100.169282
734.000000	100.159347
733.000000	100.169813
732.000000	100.167670
731.000000	100.194134
730.000000	100.167791
729.000000	100.231786
728.000000	100.192635
727.000000	100.155818
726.000000	100.157424
725.000000	100.207248
724.000000	100.176603
723.000000	100.169190
722.000000	100.153129
721.000000	100.172652
720.000000	100.156457
719.000000	100.185294
718.000000	100.188699
717.000000	100.169602
716.000000	100.176755
715.000000	100.165538
714.000000	100.180742
713.000000	100.191177
712.000000	100.193546
711.000000	100.177648
710.000000	100.179591
709.000000	100.197394
708.000000	100.200899
707.000000	100.195041
706.000000	100.191201
705.000000	100.189026
704.000000	100.193451
703.000000	100.195245
702.000000	100.180848
701.000000	100.134055
700.000000	100.132634
699.000000	100.151015
698.000000	100.165731
697.000000	100.181900
696.000000	100.183843
695.000000	100.184546
694.000000	100.180890
693.000000	100.176003
692.000000	100.176706
691.000000	100.186479
690.000000	100.177638
689.000000	100.179021
688.000000	100.173652
687.000000	100.170085
686.000000	100.180689
685.000000	100.186226
684.000000	100.177736
683.000000	100.172940
682.000000	100.184094
681.000000	100.173791
680.000000	100.177562
679.000000	100.194923
678.000000	100.186198
677.000000	100.183625
676.000000	100.184238
675.000000	100.177191
674.000000	100.158559
673.000000	100.176799
672.000000	100.188657
671.000000	100.202211
670.000000	100.202115
669.000000	100.185606
668.000000	100.185199
667.000000	100.191554
666.000000	100.192935
665.000000	100.197579
664.000000	100.179916
663.000000	100.170146
662.000000	100.190465
661.000000	100.217673
660.000000	100.197987
659.000000	100.172207
658.000000	100.191193
657.000000	100.188064
656.000000	100.173190
655.000000	100.175463
654.000000	100.172910
653.000000	100.177808
652.000000	100.184498
651.000000	100.185883
650.000000	100.184998
649.000000	100.167730
648.000000	100.161661
647.000000	100.180574
646.000000	100.192355
645.000000	100.176776
644.000000	100.165385
643.000000	100.181135
642.000000	100.163501
641.000000	100.169972
640.000000	100.196947
639.000000	100.188941
638.000000	100.176179
637.000000	100.180501
636.000000	100.180189
635.000000	100.175243
634.000000	100.172655
633.000000	100.201216
632.000000	100.201485
631.000000	100.172396
630.000000	100.182827
629.000000	100.189999
628.000000	100.183451
627.000000	100.186431
626.000000	100.174434
625.000000	100.157894
624.000000	100.173683
623.000000	100.174616
622.000000	100.178828
621.000000	100.164789
620.000000	100.176166
619.000000	100.167795
618.000000	100.153958
617.000000	100.164984
616.000000	100.161269
615.000000	100.158334
614.000000	100.173443
613.000000	100.170184
612.000000	100.182141
611.000000	100.192843
610.000000	100.182413
609.000000	100.189486
608.000000	100.169842
607.000000	100.161681
606.000000	100.176258
605.000000	100.175706
604.000000	100.173809
603.000000	100.165307
602.000000	100.170345
601.000000	100.173556
600.000000	100.175046
599.000000	100.172105
598.000000	100.185338
597.000000	100.182752
596.000000	100.185523
595.000000	100.175419
594.000000	100.177844
593.000000	100.176839
592.000000	100.160711
591.000000	100.167917
590.000000	100.177492
589.000000	100.164775
588.000000	100.178253
587.000000	100.156850
586.000000	100.160989
585.000000	100.184178
584.000000	100.163450
583.000000	100.185253
582.000000	100.195797
581.000000	100.159431
580.000000	100.182396
579.000000	100.182438
578.000000	100.173104
577.000000	100.154737
576.000000	100.164346
575.000000	100.160165
574.000000	100.170114
573.000000	100.176210
572.000000	100.176229
571.000000	100.191500
570.000000	100.164661
569.000000	100.171336
568.000000	100.165736
567.000000	100.175141
566.000000	100.175398
565.000000	100.162849
564.000000	100.181655
563.000000	100.176306
562.000000	100.164341
561.000000	100.161681
560.000000	100.169726
559.000000	100.166329
558.000000	100.163158
557.000000	100.159982
556.000000	100.169856
555.000000	100.166011
554.000000	100.171425
553.000000	100.169859
552.000000	100.168402
551.000000	100.157100
550.000000	100.161942
549.000000	100.167929
548.000000	100.162718
547.000000	100.178706
546.000000	100.167826
545.000000	100.164663
544.000000	100.170810
543.000000	100.163604
542.000000	100.156182
541.000000	100.169332
540.000000	100.152466
539.000000	100.172777
538.000000	100.165460
537.000000	100.151566
536.000000	100.165569
535.000000	100.194877
534.000000	100.184682
533.000000	100.184083
532.000000	100.174464
531.000000	100.167958
530.000000	100.158685
529.000000	100.163250
528.000000	100.174572
527.000000	100.178708
526.000000	100.168725
525.000000	100.160844
524.000000	100.158857
523.000000	100.167765
522.000000	100.156408
521.000000	100.159992
520.000000	100.158840
519.000000	100.169544
518.000000	100.174314
517.000000	100.177140
516.000000	100.176593
515.000000	100.170803
514.000000	100.162421
513.000000	100.152626
512.000000	100.169462
511.000000	100.172743
510.000000	100.176005
509.000000	100.158436
508.000000	100.164486
507.000000	100.151319
506.000000	100.176896
505.000000	100.151976
504.000000	100.168150
503.000000	100.154448
502.000000	100.164630
501.000000	100.156417
500.000000	100.152507
499.000000	100.159256
498.000000	100.158065
497.000000	100.167230
496.000000	100.183354
495.000000	100.159994
494.000000	100.163581
493.000000	100.142587
492.000000	100.145694
491.000000	100.173486
490.000000	100.160108
489.000000	100.165123
488.000000	100.190934
487.000000	100.174087
486.000000	100.186212
485.000000	100.162485
484.000000	100.171840
483.000000	100.127663
482.000000	100.148862
481.000000	100.165485
480.000000	100.160610
479.000000	100.160704
478.000000	100.158249
477.000000	100.148850
476.000000	100.138633
475.000000	100.141172
474.000000	100.146642
473.000000	100.150385
472.000000	100.160208
471.000000	100.155743
470.000000	100.152433
469.000000	100.141096
468.000000	100.146007
467.000000	100.149744
466.000000	100.156403
465.000000	100.165685
464.000000	100.146291
463.000000	100.164856
462.000000	100.146495
461.000000	100.166014
460.000000	100.152450
459.000000	100.139845
458.000000	100.139372
457.000000	100.134279
456.000000	100.155796
455.000000	100.142673
454.000000	100.154025
453.000000	100.150835
452.000000	100.178234
451.000000	100.162291
450.000000	100.148961
449.000000	100.144705
448.000000	100.190335
447.000000	100.148484
446.000000	100.140380
445.000000	100.166478
444.000000	100.182491
443.000000	100.126063
442.000000	100.139598
441.000000	100.127968
440.000000	100.157700
439.000000	100.145317
438.000000	100.158725
437.000000	100.143039
436.000000	100.152431
435.000000	100.159977
434.000000	100.130733
433.000000	100.149972
432.000000	100.150598
431.000000	100.119589
430.000000	100.128049
429.000000	100.134022
428.000000	100.132886
427.000000	100.125443
426.000000	100.127620
425.000000	100.158217
424.000000	100.159092
423.000000	100.145104
422.000000	100.147992
421.000000	100.152333
420.000000	100.138320
419.000000	100.130383
418.000000	100.171877
417.000000	100.160973
416.000000	100.148612
415.000000	100.138178
414.000000	100.135836
413.000000	100.144101
412.000000	100.140227
411.000000	100.138349
410.000000	100.104968
409.000000	100.123250
408.000000	100.137732
407.000000	100.143272
406.000000	100.143426
405.000000	100.139035
404.000000	100.137878
403.000000	100.146304
402.000000	100.126850
401.000000	100.113116
400.000000	100.122140
399.000000	100.106255
398.000000	100.130842
397.000000	100.169808
396.000000	100.157503
395.000000	100.176242
394.000000	100.148589
393.000000	100.119254
392.000000	100.128499
391.000000	100.135736
390.000000	100.161578
389.000000	100.140132
388.000000	100.123129
387.000000	100.135743
386.000000	100.123144
385.000000	100.138425
384.000000	100.121520
383.000000	100.114551
382.000000	100.092451
381.000000	100.095472
380.000000	100.122641
379.000000	100.099099
378.000000	100.115848
377.000000	100.113195
376.000000	100.084950
375.000000	100.109403
374.000000	100.158439
373.000000	100.162030
372.000000	100.138063
371.000000	100.114218
370.000000	100.105061
369.000000	100.127083
368.000000	100.129462
367.000000	100.108253
366.000000	100.061095
365.000000	100.103546
364.000000	100.161100
363.000000	100.135779
362.000000	100.121377
361.000000	100.095528
360.000000	100.129993
359.000000	100.161228
358.000000	100.130669
357.000000	100.145059
356.000000	100.130021
355.000000	100.110525
354.000000	100.101018
353.000000	100.092599
352.000000	100.100830
351.000000	100.109899
350.000000	100.067078
349.000000	100.065036
348.000000	100.094638
347.000000	100.129347
346.000000	100.122006
345.000000	100.073175
344.000000	100.075708
343.000000	100.086596
342.000000	100.080329
341.000000	100.058830
340.000000	100.074782
339.000000	100.097153
338.000000	100.107694
337.000000	100.096479
336.000000	100.093608
335.000000	100.087807
334.000000	100.095054
333.000000	100.128122
332.000000	100.100653
331.000000	100.041609
330.000000	100.103717
329.000000	100.119477
328.000000	100.089922
327.000000	100.068892
326.000000	100.094458
325.000000	100.101119
324.000000	100.068286
323.000000	100.057161
322.000000	100.120923
321.000000	100.079971
320.000000	100.020599
319.000000	100.026210
318.000000	100.046424
317.000000	100.082652
316.000000	100.024499
315.000000	100.005432
314.000000	100.020170
313.000000	100.038432
312.000000	100.053690
311.000000	100.017291
310.000000	100.024684
309.000000	100.045282
308.000000	100.028591
307.000000	100.064134
306.000000	100.036991
305.000000	100.005339
304.000000	100.005341
303.000000	100.048721
302.000000	100.054585
301.000000	100.052913
300.000000	100.036876
299.000000	100.010350
298.000000	100.026082
297.000000	100.042327
296.000000	100.021845
295.000000	100.032857
294.000000	100.014546
293.000000	100.026548
292.000000	100.038944
291.000000	100.015565
290.000000	100.002331
289.000000	100.010926
288.000000	100.001843
287.000000	99.981798
286.000000	100.003078
285.000000	100.010228
284.000000	99.990874
283.000000	99.991113
282.000000	99.958510
281.000000	99.991968
280.000000	99.969334
279.000000	99.963991
278.000000	99.939584
277.000000	99.964195
276.000000	99.960212
275.000000	99.912091
274.000000	99.959674
273.000000	99.949485
272.000000	99.916943
271.000000	99.915429
270.000000	99.912165
269.000000	99.900965
268.000000	99.905896
267.000000	99.917693
266.000000	99.919902
265.000000	99.905218
264.000000	99.890169
263.000000	99.897740
262.000000	99.902828
261.000000	99.903702
260.000000	99.894138
259.000000	99.884209
258.000000	99.875769
257.000000	99.866376
256.000000	99.843902
255.000000	99.851636
254.000000	99.842764
253.000000	99.851531
252.000000	99.839173
251.000000	99.817556
250.000000	99.832598
249.000000	99.818944
248.000000	99.823710
247.000000	99.777410
246.000000	99.820308
245.000000	99.823658
244.000000	99.765038
243.000000	99.778919
242.000000	99.779312
241.000000	99.769122
240.000000	99.748192
239.000000	99.771865
238.000000	99.781224
237.000000	99.750472
236.000000	99.745911
235.000000	99.738462
234.000000	99.704812
233.000000	99.697288
232.000000	99.721375
231.000000	99.699181
230.000000	99.705964
229.000000	99.681719
228.000000	99.655032
227.000000	99.654235
226.000000	99.651805
225.000000	99.621168
224.000000	99.600668
223.000000	99.594776
222.000000	99.600716
221.000000	99.565907
220.000000	99.577369
219.000000	99.538660
218.000000	99.511932
217.000000	99.497506
216.000000	99.500500
215.000000	99.448582
214.000000	99.426031
213.000000	99.426087
212.000000	99.430699
211.000000	99.429945
210.000000	99.381848
209.000000	99.300539
208.000000	99.329635
207.000000	99.363018
206.000000	99.306370
205.000000	99.212799
204.000000	99.223046
203.000000	99.236801
202.000000	99.187363
201.000000	99.091741
200.000000	99.130437
199.000000	99.092539
198.000000	99.019075
197.000000	98.914288
196.000000	98.861570
195.000000	98.760805
194.000000	98.542070
193.000000	98.399954
192.000000	98.144045
191.000000	97.806562
190.000000	97.113702
