PE UV       SUBTECH     SPECTRUM    ASCII       PEDS        4.00        
   -1
C2F6_6bar.Sample.Cycle8.ASC
26/05/13
19:11:31.00
26/05/13
19:11:31.00
Jinky Agarwala

190.000000
1
Lambda 850+
860L2410213
PerkinElmer UV WinLab 7.4.0.367 / 2.02.11 Lambda 800 UV/VIS, May 23 2018 11:23:04

0
0
1
0
0
UV/VIS
1
1
10
RBeamAtt,SBeamAtt,uv/vis detector
0
0
0
0
Fix
 
0
0.2
0
0
0
 
 
 
0
 
0
319.2
0
Front
100
 
S:100 R:100
 
0
0
0
 
0
 
 
 
0
 
 
0
0
0
0
0
 
 
 
 
0
0


0
0

0


#HDR
-1
-1
#GR
nm
%T
1.0
0.0
800.000000
-1.000000
611
8
100.191832
98.250560
#DATA
800.000000	100.097610
799.000000	100.145430
798.000000	100.144505
797.000000	100.191832
796.000000	100.114273
795.000000	100.073442
794.000000	100.042810
793.000000	100.041723
792.000000	100.040323
791.000000	100.069332
790.000000	100.100536
789.000000	100.079515
788.000000	100.076155
787.000000	100.087626
786.000000	100.094733
785.000000	100.087785
784.000000	100.086471
783.000000	100.065956
782.000000	100.090174
781.000000	100.133634
780.000000	100.084953
779.000000	100.097539
778.000000	100.128978
777.000000	100.083252
776.000000	100.114836
775.000000	100.133235
774.000000	100.069440
773.000000	100.116448
772.000000	100.120293
771.000000	100.080760
770.000000	100.075963
769.000000	100.100023
768.000000	100.088187
767.000000	100.134745
766.000000	100.124128
765.000000	100.084949
764.000000	100.079060
763.000000	100.036452
762.000000	100.079306
761.000000	100.104056
760.000000	100.151271
759.000000	100.101817
758.000000	100.069620
757.000000	100.074493
756.000000	100.078137
755.000000	100.091483
754.000000	100.076641
753.000000	100.088458
752.000000	100.087701
751.000000	100.087629
750.000000	100.033836
749.000000	100.079407
748.000000	100.093334
747.000000	100.073266
746.000000	100.071301
745.000000	100.078614
744.000000	100.109026
743.000000	100.109283
742.000000	100.066403
741.000000	100.054480
740.000000	100.094429
739.000000	100.061263
738.000000	100.097253
737.000000	100.089747
736.000000	100.087453
735.000000	100.048493
734.000000	100.035103
733.000000	100.048407
732.000000	100.045104
731.000000	100.092909
730.000000	100.091603
729.000000	100.096198
728.000000	100.106083
727.000000	100.085899
726.000000	100.090924
725.000000	100.087631
724.000000	100.075528
723.000000	100.054656
722.000000	100.076675
721.000000	100.092163
720.000000	100.065385
719.000000	100.069624
718.000000	100.103473
717.000000	100.092702
716.000000	100.050533
715.000000	100.058000
714.000000	100.082631
713.000000	100.079768
712.000000	100.072649
711.000000	100.082806
710.000000	100.062205
709.000000	100.049962
708.000000	100.072172
707.000000	100.101537
706.000000	100.102912
705.000000	100.106627
704.000000	100.112474
703.000000	100.092261
702.000000	100.055293
701.000000	100.045132
700.000000	100.049612
699.000000	100.054102
698.000000	100.079063
697.000000	100.107618
696.000000	100.101712
695.000000	100.075654
694.000000	100.073878
693.000000	100.071095
692.000000	100.063493
691.000000	100.078176
690.000000	100.078627
689.000000	100.080997
688.000000	100.068677
687.000000	100.057927
686.000000	100.089672
685.000000	100.078033
684.000000	100.057750
683.000000	100.060675
682.000000	100.061365
681.000000	100.058117
680.000000	100.082832
679.000000	100.095328
678.000000	100.090404
677.000000	100.083446
676.000000	100.094591
675.000000	100.083596
674.000000	100.063491
673.000000	100.053613
672.000000	100.069706
671.000000	100.078500
670.000000	100.094815
669.000000	100.102364
668.000000	100.094174
667.000000	100.110746
666.000000	100.096693
665.000000	100.084998
664.000000	100.076898
663.000000	100.070603
662.000000	100.078169
661.000000	100.075938
660.000000	100.072456
659.000000	100.076862
658.000000	100.088043
657.000000	100.104179
656.000000	100.088174
655.000000	100.079612
654.000000	100.087640
653.000000	100.082586
652.000000	100.080344
651.000000	100.090854
650.000000	100.086347
649.000000	100.073593
648.000000	100.076879
647.000000	100.087746
646.000000	100.081663
645.000000	100.069920
644.000000	100.064843
643.000000	100.085426
642.000000	100.061016
641.000000	100.065774
640.000000	100.104013
639.000000	100.099615
638.000000	100.085375
637.000000	100.076453
636.000000	100.055086
635.000000	100.065730
634.000000	100.071845
633.000000	100.089291
632.000000	100.097234
631.000000	100.076520
630.000000	100.068150
629.000000	100.080166
628.000000	100.071229
627.000000	100.060936
626.000000	100.065583
625.000000	100.067847
624.000000	100.075342
623.000000	100.085892
622.000000	100.069809
621.000000	100.062221
620.000000	100.076974
619.000000	100.077662
618.000000	100.065189
617.000000	100.070076
616.000000	100.079954
615.000000	100.070320
614.000000	100.049798
613.000000	100.065351
612.000000	100.086361
611.000000	100.089895
610.000000	100.079117
609.000000	100.076861
608.000000	100.069935
607.000000	100.069033
606.000000	100.065756
605.000000	100.065989
604.000000	100.074068
603.000000	100.068622
602.000000	100.073070
601.000000	100.084335
600.000000	100.077975
599.000000	100.076504
598.000000	100.085051
597.000000	100.064822
596.000000	100.086335
595.000000	100.079746
594.000000	100.086020
593.000000	100.085120
592.000000	100.074892
591.000000	100.080259
590.000000	100.061935
589.000000	100.064339
588.000000	100.062645
587.000000	100.062991
586.000000	100.077931
585.000000	100.084567
584.000000	100.080471
583.000000	100.081283
582.000000	100.094763
581.000000	100.080286
580.000000	100.075856
579.000000	100.071880
578.000000	100.069949
577.000000	100.064474
576.000000	100.058548
575.000000	100.070779
574.000000	100.079462
573.000000	100.084165
572.000000	100.072296
571.000000	100.082610
570.000000	100.091072
569.000000	100.098184
568.000000	100.073724
567.000000	100.083798
566.000000	100.081639
565.000000	100.081310
564.000000	100.095746
563.000000	100.090613
562.000000	100.075709
561.000000	100.059115
560.000000	100.061760
559.000000	100.069437
558.000000	100.083181
557.000000	100.072667
556.000000	100.076344
555.000000	100.086097
554.000000	100.075922
553.000000	100.081207
552.000000	100.062664
551.000000	100.074940
550.000000	100.074495
549.000000	100.065567
548.000000	100.091049
547.000000	100.086944
546.000000	100.057471
545.000000	100.064832
544.000000	100.090800
543.000000	100.072560
542.000000	100.077057
541.000000	100.082024
540.000000	100.057907
539.000000	100.079664
538.000000	100.067265
537.000000	100.066353
536.000000	100.081346
535.000000	100.102100
534.000000	100.083705
533.000000	100.086397
532.000000	100.078359
531.000000	100.053488
530.000000	100.068964
529.000000	100.068877
528.000000	100.081744
527.000000	100.083174
526.000000	100.078122
525.000000	100.071808
524.000000	100.058429
523.000000	100.062521
522.000000	100.087009
521.000000	100.058084
520.000000	100.066135
519.000000	100.088023
518.000000	100.067634
517.000000	100.082580
516.000000	100.083698
515.000000	100.078877
514.000000	100.069259
513.000000	100.061727
512.000000	100.084439
511.000000	100.080177
510.000000	100.086541
509.000000	100.070325
508.000000	100.051043
507.000000	100.061605
506.000000	100.076265
505.000000	100.052611
504.000000	100.067377
503.000000	100.070076
502.000000	100.080850
501.000000	100.095725
500.000000	100.073794
499.000000	100.049650
498.000000	100.093200
497.000000	100.078407
496.000000	100.090214
495.000000	100.063623
494.000000	100.087461
493.000000	100.054931
492.000000	100.051758
491.000000	100.071848
490.000000	100.035502
489.000000	100.059206
488.000000	100.081979
487.000000	100.103682
486.000000	100.095733
485.000000	100.076807
484.000000	100.063039
483.000000	100.069199
482.000000	100.067081
481.000000	100.037435
480.000000	100.082173
479.000000	100.077488
478.000000	100.085733
477.000000	100.061904
476.000000	100.063345
475.000000	100.058109
474.000000	100.069980
473.000000	100.075896
472.000000	100.068191
471.000000	100.080808
470.000000	100.066168
469.000000	100.057026
468.000000	100.057767
467.000000	100.062393
466.000000	100.063598
465.000000	100.074005
464.000000	100.067311
463.000000	100.057192
462.000000	100.067114
461.000000	100.067727
460.000000	100.042242
459.000000	100.086267
458.000000	100.059832
457.000000	100.046372
456.000000	100.079432
455.000000	100.047912
454.000000	100.070108
453.000000	100.066565
452.000000	100.084278
451.000000	100.077546
450.000000	100.089471
449.000000	100.055238
448.000000	100.076984
447.000000	100.036354
446.000000	100.084653
445.000000	100.088198
444.000000	100.087350
443.000000	100.057602
442.000000	100.087042
441.000000	100.081058
440.000000	100.099301
439.000000	100.070353
438.000000	100.064341
437.000000	100.054423
436.000000	100.066866
435.000000	100.074482
434.000000	100.059090
433.000000	100.057335
432.000000	100.052609
431.000000	100.053454
430.000000	100.050627
429.000000	100.040088
428.000000	100.057070
427.000000	100.055541
426.000000	100.070399
425.000000	100.070675
424.000000	100.048120
423.000000	100.061084
422.000000	100.066210
421.000000	100.059221
420.000000	100.063629
419.000000	100.051987
418.000000	100.049397
417.000000	100.049649
416.000000	100.043226
415.000000	100.053246
414.000000	100.032887
413.000000	100.053993
412.000000	100.070829
411.000000	100.071560
410.000000	100.056897
409.000000	100.055600
408.000000	100.045712
407.000000	100.060771
406.000000	100.073803
405.000000	100.057931
404.000000	100.050539
403.000000	100.064187
402.000000	100.061931
401.000000	100.049742
400.000000	100.051201
399.000000	100.039726
398.000000	100.073142
397.000000	100.093286
396.000000	100.071865
395.000000	100.077638
394.000000	100.051527
393.000000	100.045664
392.000000	100.043153
391.000000	100.063671
390.000000	100.091885
389.000000	100.067667
388.000000	100.076566
387.000000	100.071532
386.000000	100.047289
385.000000	100.048863
384.000000	100.073489
383.000000	100.045508
382.000000	100.016689
381.000000	100.028462
380.000000	100.042522
379.000000	100.075402
378.000000	100.096559
377.000000	100.094984
376.000000	100.064933
375.000000	100.063948
374.000000	100.096067
373.000000	100.077846
372.000000	100.050846
371.000000	100.061060
370.000000	100.044205
369.000000	100.044839
368.000000	100.073790
367.000000	100.055567
366.000000	100.011403
365.000000	100.042404
364.000000	100.075380
363.000000	100.056645
362.000000	100.037772
361.000000	100.013234
360.000000	100.041526
359.000000	100.081156
358.000000	100.057567
357.000000	100.050843
356.000000	100.053985
355.000000	100.053274
354.000000	100.022663
353.000000	100.024838
352.000000	100.048003
351.000000	100.023403
350.000000	100.011582
349.000000	100.011825
348.000000	100.021728
347.000000	100.058695
346.000000	100.065835
345.000000	100.022822
344.000000	100.010746
343.000000	100.007005
342.000000	100.007852
341.000000	100.028388
340.000000	100.038297
339.000000	100.035405
338.000000	100.039524
337.000000	100.066859
336.000000	100.083449
335.000000	100.048620
334.000000	100.033741
333.000000	100.045006
332.000000	100.019235
331.000000	100.003145
330.000000	100.045989
329.000000	100.038252
328.000000	99.994191
327.000000	100.052304
326.000000	100.063456
325.000000	100.077868
324.000000	100.006175
323.000000	99.989222
322.000000	100.032230
321.000000	100.045559
320.000000	100.050042
319.000000	100.018480
318.000000	99.977933
317.000000	100.023408
316.000000	100.018223
315.000000	99.989016
314.000000	99.981158
313.000000	99.998066
312.000000	100.036035
311.000000	99.974003
310.000000	99.999153
309.000000	100.009928
308.000000	100.003029
307.000000	100.021580
306.000000	100.007519
305.000000	100.012740
304.000000	100.002671
303.000000	99.997084
302.000000	100.026137
301.000000	99.994526
300.000000	99.959107
299.000000	99.959819
298.000000	100.010360
297.000000	100.021956
296.000000	99.990603
295.000000	100.000855
294.000000	99.984598
293.000000	99.994739
292.000000	99.993264
291.000000	99.972425
290.000000	99.992394
289.000000	99.963783
288.000000	99.964859
287.000000	99.983520
286.000000	99.979933
285.000000	99.995440
284.000000	100.004933
283.000000	99.989632
282.000000	99.947890
281.000000	99.945381
280.000000	99.946953
279.000000	99.989111
278.000000	99.942307
277.000000	99.966797
276.000000	99.952899
275.000000	99.934905
274.000000	99.972703
273.000000	99.930496
272.000000	99.923523
271.000000	99.924122
270.000000	99.930676
269.000000	99.914385
268.000000	99.922554
267.000000	99.923413
266.000000	99.935698
265.000000	99.923254
264.000000	99.914922
263.000000	99.909683
262.000000	99.914897
261.000000	99.941276
260.000000	99.937428
259.000000	99.917914
258.000000	99.907231
257.000000	99.889869
256.000000	99.925431
255.000000	99.909292
254.000000	99.903249
253.000000	99.888772
252.000000	99.917725
251.000000	99.900902
250.000000	99.924731
249.000000	99.893795
248.000000	99.913280
247.000000	99.876697
246.000000	99.912505
245.000000	99.894269
244.000000	99.864977
243.000000	99.864833
242.000000	99.879793
241.000000	99.880559
240.000000	99.861801
239.000000	99.869234
238.000000	99.885216
237.000000	99.850504
236.000000	99.867389
235.000000	99.851510
234.000000	99.821446
233.000000	99.844920
232.000000	99.848411
231.000000	99.813912
230.000000	99.802427
229.000000	99.846182
228.000000	99.824331
227.000000	99.805891
226.000000	99.811461
225.000000	99.793655
224.000000	99.797311
223.000000	99.787805
222.000000	99.793478
221.000000	99.775684
220.000000	99.778467
219.000000	99.778262
218.000000	99.743003
217.000000	99.731359
216.000000	99.726572
215.000000	99.682360
214.000000	99.705855
213.000000	99.723408
212.000000	99.698440
211.000000	99.692565
210.000000	99.682123
209.000000	99.637245
208.000000	99.658603
207.000000	99.674815
206.000000	99.627872
205.000000	99.614263
204.000000	99.600660
203.000000	99.619393
202.000000	99.565476
201.000000	99.535095
200.000000	99.559902
199.000000	99.534920
198.000000	99.503916
197.000000	99.432546
196.000000	99.389991
195.000000	99.331449
194.000000	99.177848
193.000000	99.096546
192.000000	98.906622
191.000000	98.713396
190.000000	98.250560
