PE UV       SUBTECH     SPECTRUM    ASCII       PEDS        4.00        
   -1
C2F6_3bar.Sample.Cycle9.ASC
26/05/13
18:26:53.00
26/05/13
18:26:53.00
Jinky Agarwala

190.000000
1
Lambda 850+
860L2410213
PerkinElmer UV WinLab 7.4.0.367 / 2.02.11 Lambda 800 UV/VIS, May 23 2018 11:23:04

0
0
1
0
0
UV/VIS
1
1
10
RBeamAtt,SBeamAtt,uv/vis detector
0
0
0
0
Fix
 
0
0.2
0
0
0
 
 
 
0
 
0
319.2
0
Front
100
 
S:100 R:100
 
0
0
0
 
0
 
 
 
0
 
 
0
0
0
0
0
 
 
 
 
0
0


0
0

0


#HDR
-1
-1
#GR
nm
%T
1.0
0.0
800.000000
-1.000000
611
8
100.086820
99.260309
#DATA
800.000000	100.029163
799.000000	100.008491
798.000000	100.058259
797.000000	100.086820
796.000000	100.020044
795.000000	100.046745
794.000000	99.924076
793.000000	100.009478
792.000000	99.998910
791.000000	99.980051
790.000000	100.020936
789.000000	99.998582
788.000000	100.000764
787.000000	100.007748
786.000000	99.992797
785.000000	100.051972
784.000000	99.965390
783.000000	99.992356
782.000000	100.061209
781.000000	100.030401
780.000000	100.045155
779.000000	100.012247
778.000000	100.033803
777.000000	99.996390
776.000000	100.046416
775.000000	99.997482
774.000000	99.995400
773.000000	100.050063
772.000000	100.012709
771.000000	100.011944
770.000000	100.011290
769.000000	100.011406
768.000000	99.994516
767.000000	100.019092
766.000000	100.035559
765.000000	100.024914
764.000000	100.055013
763.000000	99.989569
762.000000	99.992311
761.000000	100.000659
760.000000	100.053209
759.000000	100.058055
758.000000	100.010119
757.000000	100.031249
756.000000	100.003632
755.000000	100.027082
754.000000	100.022133
753.000000	100.009694
752.000000	100.002204
751.000000	100.041555
750.000000	99.997575
749.000000	100.013896
748.000000	100.042144
747.000000	100.017323
746.000000	100.009271
745.000000	99.998565
744.000000	100.006517
743.000000	100.028730
742.000000	99.985637
741.000000	99.975689
740.000000	100.024879
739.000000	100.003207
738.000000	100.018034
737.000000	100.003984
736.000000	100.000775
735.000000	99.994464
734.000000	99.953824
733.000000	99.998228
732.000000	99.976949
731.000000	100.032596
730.000000	100.016857
729.000000	100.025298
728.000000	100.030293
727.000000	100.010765
726.000000	100.003775
725.000000	100.027988
724.000000	100.031544
723.000000	100.016664
722.000000	100.000000
721.000000	100.004892
720.000000	99.996998
719.000000	99.998220
718.000000	100.014798
717.000000	100.028267
716.000000	100.029051
715.000000	99.991428
714.000000	99.986636
713.000000	100.000891
712.000000	99.976935
711.000000	99.980274
710.000000	99.982498
709.000000	100.005911
708.000000	100.006470
707.000000	99.995648
706.000000	100.000112
705.000000	100.025233
704.000000	100.047804
703.000000	100.015637
702.000000	100.028708
701.000000	99.996984
700.000000	99.992402
699.000000	100.002571
698.000000	100.020688
697.000000	100.033785
696.000000	100.020029
695.000000	100.005372
694.000000	100.002351
693.000000	100.008621
692.000000	100.012206
691.000000	100.026096
690.000000	100.029121
689.000000	100.031368
688.000000	100.022183
687.000000	99.986330
686.000000	99.998431
685.000000	100.009081
684.000000	100.016820
683.000000	99.989570
682.000000	99.999551
681.000000	99.991698
680.000000	100.007071
679.000000	100.024927
678.000000	100.019091
677.000000	100.007075
676.000000	100.008089
675.000000	100.014831
674.000000	100.013035
673.000000	100.004833
672.000000	100.011131
671.000000	100.015183
670.000000	100.000675
669.000000	100.015298
668.000000	100.018452
667.000000	100.031513
666.000000	100.028479
665.000000	100.017563
664.000000	100.003941
663.000000	99.998311
662.000000	100.009349
661.000000	100.018027
660.000000	100.008451
659.000000	100.017356
658.000000	100.032467
657.000000	100.021309
656.000000	100.006540
655.000000	100.011502
654.000000	100.017596
653.000000	100.017487
652.000000	100.020199
651.000000	100.022572
650.000000	100.007111
649.000000	100.002483
648.000000	100.010838
647.000000	100.029475
646.000000	100.019202
645.000000	99.996611
644.000000	100.014912
643.000000	100.025085
642.000000	100.000565
641.000000	100.004294
640.000000	100.013454
639.000000	100.003731
638.000000	100.007011
637.000000	100.015720
636.000000	100.023980
635.000000	100.030772
634.000000	100.027267
633.000000	100.033951
632.000000	100.023884
631.000000	100.003169
630.000000	100.007132
629.000000	100.030006
628.000000	100.023894
627.000000	100.019821
626.000000	100.017104
625.000000	99.992411
624.000000	100.001813
623.000000	100.015751
622.000000	100.008159
621.000000	100.002607
620.000000	100.012923
619.000000	100.010997
618.000000	99.995125
617.000000	100.005670
616.000000	100.011795
615.000000	100.005784
614.000000	100.003970
613.000000	100.011346
612.000000	100.030754
611.000000	100.025879
610.000000	100.011465
609.000000	100.017825
608.000000	100.009196
607.000000	100.011468
606.000000	100.011811
605.000000	100.005793
604.000000	100.002272
603.000000	100.004999
602.000000	100.008296
601.000000	100.014662
600.000000	100.021483
599.000000	100.010572
598.000000	100.014554
597.000000	100.014898
596.000000	100.025593
595.000000	100.006712
594.000000	99.996814
593.000000	100.018207
592.000000	100.020146
591.000000	100.022313
590.000000	100.009336
589.000000	100.008654
588.000000	100.028930
587.000000	99.998861
586.000000	99.997607
585.000000	100.023364
584.000000	100.015274
583.000000	100.008208
582.000000	100.008667
581.000000	99.998061
580.000000	100.010494
579.000000	100.018027
578.000000	100.024077
577.000000	100.011868
576.000000	100.001712
575.000000	99.997146
574.000000	100.003425
573.000000	100.017815
572.000000	99.993490
571.000000	100.038734
570.000000	100.004342
569.000000	100.032004
568.000000	100.013487
567.000000	99.998514
566.000000	99.991539
565.000000	99.993710
564.000000	100.019675
563.000000	100.025056
562.000000	100.014296
561.000000	99.999771
560.000000	100.009150
559.000000	100.019218
558.000000	100.017277
557.000000	100.003548
556.000000	99.993705
555.000000	100.004580
554.000000	100.011795
553.000000	100.016035
552.000000	100.014205
551.000000	100.004125
550.000000	99.998281
549.000000	100.000688
548.000000	100.003784
547.000000	100.014797
546.000000	99.987152
545.000000	100.009295
544.000000	100.026746
543.000000	100.013662
542.000000	100.020097
541.000000	100.008386
540.000000	99.991957
539.000000	100.023911
538.000000	100.004599
537.000000	99.987350
536.000000	100.013692
535.000000	100.016000
534.000000	100.014968
533.000000	100.029490
532.000000	100.017631
531.000000	100.025937
530.000000	100.004959
529.000000	100.000461
528.000000	100.020321
527.000000	100.029573
526.000000	99.995840
525.000000	100.009019
524.000000	100.015041
523.000000	100.015978
522.000000	100.006025
521.000000	100.002319
520.000000	100.014387
519.000000	100.020670
518.000000	100.013480
517.000000	100.019307
516.000000	100.020022
515.000000	100.024817
514.000000	100.005480
513.000000	99.998950
512.000000	100.023124
511.000000	100.018116
510.000000	100.010525
509.000000	100.012052
508.000000	100.001873
507.000000	100.005739
506.000000	100.004335
505.000000	100.015819
504.000000	100.006679
503.000000	100.000469
502.000000	100.010311
501.000000	100.024956
500.000000	100.009488
499.000000	100.017799
498.000000	99.993794
497.000000	100.016969
496.000000	100.026093
495.000000	100.022221
494.000000	100.022684
493.000000	99.995559
492.000000	99.988550
491.000000	100.007710
490.000000	99.970804
489.000000	100.001051
488.000000	100.008408
487.000000	100.026387
486.000000	100.014710
485.000000	100.021361
484.000000	100.050898
483.000000	99.995916
482.000000	99.995567
481.000000	99.995219
480.000000	100.001401
479.000000	100.026063
478.000000	100.012047
477.000000	100.001872
476.000000	100.004801
475.000000	99.982310
474.000000	99.978197
473.000000	100.017830
472.000000	99.994484
471.000000	99.999648
470.000000	100.015279
469.000000	100.015050
468.000000	100.004471
467.000000	99.992230
466.000000	99.998116
465.000000	100.019444
464.000000	100.006837
463.000000	100.012736
462.000000	100.014508
461.000000	100.007079
460.000000	100.005782
459.000000	100.021360
458.000000	100.000826
457.000000	99.979823
456.000000	100.008144
455.000000	99.993155
454.000000	100.014753
453.000000	100.019120
452.000000	100.012512
451.000000	100.007436
450.000000	100.007790
449.000000	100.004013
448.000000	100.018183
447.000000	99.981233
446.000000	100.017001
445.000000	100.037782
444.000000	100.025379
443.000000	99.995869
442.000000	99.992205
441.000000	100.002836
440.000000	100.004965
439.000000	100.001182
438.000000	99.991484
437.000000	99.988169
436.000000	99.981893
435.000000	100.019775
434.000000	99.998461
433.000000	99.988509
432.000000	99.997867
431.000000	99.985185
430.000000	99.996562
429.000000	100.004151
428.000000	100.009136
427.000000	99.989319
426.000000	99.998932
425.000000	100.044187
424.000000	100.008198
423.000000	99.999406
422.000000	100.009509
421.000000	100.028065
420.000000	99.995718
419.000000	99.982275
418.000000	100.010951
417.000000	100.002977
416.000000	99.992617
415.000000	99.995116
414.000000	99.992017
413.000000	99.997020
412.000000	100.001669
411.000000	100.012762
410.000000	100.021471
409.000000	100.007039
408.000000	100.000955
407.000000	100.010984
406.000000	99.997134
405.000000	99.965361
404.000000	99.975985
403.000000	99.989481
402.000000	100.017216
401.000000	100.009685
400.000000	100.013039
399.000000	99.999761
398.000000	100.022505
397.000000	100.042392
396.000000	100.018565
395.000000	100.015815
394.000000	99.999521
393.000000	99.986457
392.000000	99.985975
391.000000	100.005636
390.000000	100.012115
389.000000	100.005399
388.000000	100.008641
387.000000	100.003721
386.000000	100.001800
385.000000	100.013686
384.000000	100.023175
383.000000	100.012848
382.000000	99.982831
381.000000	99.964453
380.000000	99.988709
379.000000	100.001556
378.000000	99.993094
377.000000	99.991311
376.000000	99.962470
375.000000	100.012169
374.000000	100.083999
373.000000	100.046755
372.000000	99.973560
371.000000	99.972822
370.000000	99.958071
369.000000	99.988970
368.000000	100.036475
367.000000	100.000360
366.000000	99.960270
365.000000	99.986426
364.000000	100.013345
363.000000	100.023211
362.000000	100.000722
361.000000	99.977983
360.000000	100.011796
359.000000	100.016014
358.000000	100.015295
357.000000	100.007590
356.000000	99.973249
355.000000	99.968663
354.000000	99.983847
353.000000	100.015071
352.000000	100.006754
351.000000	100.007238
350.000000	100.015442
349.000000	99.974661
348.000000	100.006518
347.000000	100.024758
346.000000	100.040467
345.000000	99.971503
344.000000	99.968365
343.000000	100.000242
342.000000	99.980431
341.000000	99.962672
340.000000	99.972817
339.000000	99.981029
338.000000	99.962289
337.000000	99.970500
336.000000	100.026002
335.000000	100.027576
334.000000	100.018503
333.000000	100.031819
332.000000	99.989838
331.000000	99.966495
330.000000	100.020574
329.000000	100.009563
328.000000	99.949654
327.000000	100.006659
326.000000	100.040084
325.000000	100.008477
324.000000	99.974817
323.000000	99.969239
322.000000	100.003877
321.000000	99.993942
320.000000	99.980855
319.000000	99.969200
318.000000	99.980466
317.000000	100.012669
316.000000	99.977794
315.000000	99.940495
314.000000	99.961834
313.000000	99.959393
312.000000	99.964811
311.000000	99.918260
310.000000	99.965394
309.000000	99.993462
308.000000	100.020959
307.000000	99.999394
306.000000	99.992966
305.000000	99.999151
304.000000	99.962247
303.000000	99.984570
302.000000	99.988937
301.000000	100.002068
300.000000	99.962028
299.000000	99.966637
298.000000	100.004875
297.000000	99.985972
296.000000	99.967781
295.000000	99.967876
294.000000	99.959906
293.000000	99.972840
292.000000	99.980650
291.000000	99.969239
290.000000	99.986260
289.000000	99.956663
288.000000	99.939179
287.000000	99.959660
286.000000	99.990767
285.000000	100.004436
284.000000	99.987297
283.000000	100.003333
282.000000	99.947149
281.000000	99.966635
280.000000	99.952764
279.000000	99.961763
278.000000	99.969173
277.000000	99.953045
276.000000	99.943230
275.000000	99.925358
274.000000	99.947266
273.000000	99.965248
272.000000	99.931344
271.000000	99.926730
270.000000	99.958381
269.000000	99.934639
268.000000	99.957112
267.000000	99.947657
266.000000	99.958334
265.000000	99.961813
264.000000	99.924872
263.000000	99.948124
262.000000	99.939905
261.000000	99.955210
260.000000	99.935811
259.000000	99.920774
258.000000	99.943916
257.000000	99.935612
256.000000	99.936989
255.000000	99.962847
254.000000	99.940260
253.000000	99.936193
252.000000	99.918842
251.000000	99.913305
250.000000	99.941471
249.000000	99.937789
248.000000	99.943756
247.000000	99.929435
246.000000	99.935524
245.000000	99.959563
244.000000	99.933786
243.000000	99.950624
242.000000	99.938232
241.000000	99.917623
240.000000	99.928441
239.000000	99.894282
238.000000	99.936599
237.000000	99.904499
236.000000	99.965991
235.000000	99.921172
234.000000	99.915120
233.000000	99.922826
232.000000	99.931351
231.000000	99.940863
230.000000	99.934957
229.000000	99.932575
228.000000	99.930173
227.000000	99.921841
226.000000	99.909541
225.000000	99.884023
224.000000	99.885517
223.000000	99.898107
222.000000	99.909631
221.000000	99.913753
220.000000	99.900323
219.000000	99.911305
218.000000	99.893169
217.000000	99.905304
216.000000	99.870780
215.000000	99.860188
214.000000	99.870733
213.000000	99.871687
212.000000	99.884379
211.000000	99.886808
210.000000	99.868815
209.000000	99.852474
208.000000	99.871442
207.000000	99.863792
206.000000	99.845382
205.000000	99.856610
204.000000	99.842134
203.000000	99.824447
202.000000	99.833295
201.000000	99.842042
200.000000	99.854243
199.000000	99.823129
198.000000	99.819827
197.000000	99.824627
196.000000	99.772992
195.000000	99.749344
194.000000	99.686092
193.000000	99.625627
192.000000	99.558754
191.000000	99.457872
190.000000	99.260309
