PE UV       SUBTECH     SPECTRUM    ASCII       PEDS        4.00        
   -1
C2F6_6bar.Sample.Cycle4.ASC
26/05/13
19:11:31.00
26/05/13
19:11:31.00
Jinky Agarwala

190.000000
1
Lambda 850+
860L2410213
PerkinElmer UV WinLab 7.4.0.367 / 2.02.11 Lambda 800 UV/VIS, May 23 2018 11:23:04

0
0
1
0
0
UV/VIS
1
1
10
RBeamAtt,SBeamAtt,uv/vis detector
0
0
0
0
Fix
 
0
0.2
0
0
0
 
 
 
0
 
0
319.2
0
Front
100
 
S:100 R:100
 
0
0
0
 
0
 
 
 
0
 
 
0
0
0
0
0
 
 
 
 
0
0


0
0

0


#HDR
-1
-1
#GR
nm
%T
1.0
0.0
800.000000
-1.000000
611
8
100.171946
98.205023
#DATA
800.000000	100.042874
799.000000	100.079573
798.000000	100.171946
797.000000	100.134533
796.000000	100.100002
795.000000	100.108092
794.000000	100.090630
793.000000	100.056974
792.000000	100.067350
791.000000	100.103779
790.000000	100.098791
789.000000	100.113874
788.000000	100.093830
787.000000	100.083152
786.000000	100.046057
785.000000	100.108312
784.000000	100.033955
783.000000	100.029484
782.000000	100.106241
781.000000	100.143695
780.000000	100.087140
779.000000	100.107162
778.000000	100.104473
777.000000	100.070452
776.000000	100.109472
775.000000	100.111887
774.000000	100.115879
773.000000	100.144054
772.000000	100.100682
771.000000	100.076925
770.000000	100.081335
769.000000	100.106713
768.000000	100.076341
767.000000	100.082295
766.000000	100.065411
765.000000	100.057072
764.000000	100.106951
763.000000	100.084104
762.000000	100.071946
761.000000	100.062961
760.000000	100.117081
759.000000	100.104456
758.000000	100.062471
757.000000	100.064590
756.000000	100.082099
755.000000	100.081465
754.000000	100.069373
753.000000	100.109498
752.000000	100.071174
751.000000	100.089723
750.000000	100.048384
749.000000	100.095619
748.000000	100.100064
747.000000	100.082645
746.000000	100.107723
745.000000	100.102684
744.000000	100.108806
743.000000	100.130499
742.000000	100.066514
741.000000	100.042766
740.000000	100.092217
739.000000	100.056176
738.000000	100.093824
737.000000	100.086317
736.000000	100.089113
735.000000	100.072739
734.000000	100.053263
733.000000	100.055718
732.000000	100.093864
731.000000	100.101114
730.000000	100.076521
729.000000	100.119277
728.000000	100.107414
727.000000	100.092780
726.000000	100.078934
725.000000	100.096405
724.000000	100.077527
723.000000	100.082540
722.000000	100.092122
721.000000	100.097165
720.000000	100.077728
719.000000	100.069624
718.000000	100.088564
717.000000	100.086025
716.000000	100.078249
715.000000	100.064679
714.000000	100.063254
713.000000	100.077763
712.000000	100.070421
711.000000	100.059736
710.000000	100.077477
709.000000	100.084422
708.000000	100.075295
707.000000	100.091718
706.000000	100.093536
705.000000	100.077151
704.000000	100.091476
703.000000	100.097511
702.000000	100.086793
701.000000	100.042004
700.000000	100.043243
699.000000	100.069751
698.000000	100.095167
697.000000	100.105829
696.000000	100.104174
695.000000	100.112250
694.000000	100.102758
693.000000	100.089009
692.000000	100.089025
691.000000	100.082432
690.000000	100.087475
689.000000	100.109452
688.000000	100.074839
687.000000	100.062185
686.000000	100.058735
685.000000	100.064579
684.000000	100.075580
683.000000	100.073460
682.000000	100.083465
681.000000	100.069000
680.000000	100.092934
679.000000	100.114079
678.000000	100.110618
677.000000	100.094901
676.000000	100.092344
675.000000	100.090450
674.000000	100.082257
673.000000	100.084184
672.000000	100.093766
671.000000	100.096607
670.000000	100.082893
669.000000	100.074130
668.000000	100.079885
667.000000	100.099266
666.000000	100.100858
665.000000	100.084998
664.000000	100.068116
663.000000	100.074882
662.000000	100.088756
661.000000	100.093852
660.000000	100.093303
659.000000	100.098163
658.000000	100.106419
657.000000	100.098091
656.000000	100.092909
655.000000	100.083221
654.000000	100.081774
653.000000	100.080668
652.000000	100.092870
651.000000	100.087581
650.000000	100.085106
649.000000	100.077883
648.000000	100.073380
647.000000	100.089892
646.000000	100.086859
645.000000	100.085395
644.000000	100.078625
643.000000	100.082488
642.000000	100.067457
641.000000	100.066904
640.000000	100.091577
639.000000	100.076210
638.000000	100.071919
637.000000	100.074078
636.000000	100.078161
635.000000	100.083606
634.000000	100.080897
633.000000	100.095742
632.000000	100.096441
631.000000	100.073690
630.000000	100.063735
629.000000	100.065899
628.000000	100.080175
627.000000	100.095594
626.000000	100.070906
625.000000	100.056294
624.000000	100.074775
623.000000	100.070368
622.000000	100.069582
621.000000	100.068228
620.000000	100.080034
619.000000	100.073467
618.000000	100.064282
617.000000	100.070643
616.000000	100.071789
615.000000	100.076898
614.000000	100.080993
613.000000	100.089971
612.000000	100.096574
611.000000	100.087057
610.000000	100.078436
609.000000	100.078905
608.000000	100.074817
607.000000	100.076867
606.000000	100.078930
605.000000	100.088932
604.000000	100.092471
603.000000	100.091686
602.000000	100.079093
601.000000	100.073310
600.000000	100.075474
599.000000	100.079914
598.000000	100.074931
597.000000	100.072441
596.000000	100.078031
595.000000	100.071783
594.000000	100.080217
593.000000	100.076585
592.000000	100.087298
591.000000	100.077526
590.000000	100.072295
589.000000	100.059670
588.000000	100.064125
587.000000	100.052283
586.000000	100.061980
585.000000	100.085251
584.000000	100.079331
583.000000	100.074443
582.000000	100.090201
581.000000	100.078803
580.000000	100.080418
579.000000	100.084430
578.000000	100.095623
577.000000	100.068696
576.000000	100.074526
575.000000	100.076144
574.000000	100.074896
573.000000	100.068520
572.000000	100.078349
571.000000	100.104091
570.000000	100.075874
569.000000	100.100584
568.000000	100.081153
567.000000	100.082769
566.000000	100.089643
565.000000	100.086570
564.000000	100.102496
563.000000	100.089698
562.000000	100.081656
561.000000	100.076038
560.000000	100.086464
559.000000	100.081906
558.000000	100.092105
557.000000	100.079419
556.000000	100.093055
555.000000	100.087470
554.000000	100.098480
553.000000	100.084299
552.000000	100.073891
551.000000	100.067034
550.000000	100.066129
549.000000	100.077718
548.000000	100.095750
547.000000	100.082241
546.000000	100.058619
545.000000	100.067931
544.000000	100.088849
543.000000	100.071871
542.000000	100.071315
541.000000	100.084781
540.000000	100.071005
539.000000	100.093688
538.000000	100.078648
537.000000	100.055084
536.000000	100.075018
535.000000	100.088748
534.000000	100.073343
533.000000	100.083056
532.000000	100.087347
531.000000	100.077696
530.000000	100.072539
529.000000	100.068069
528.000000	100.106798
527.000000	100.100964
526.000000	100.086674
525.000000	100.087418
524.000000	100.065139
523.000000	100.085793
522.000000	100.075076
521.000000	100.063765
520.000000	100.071124
519.000000	100.089765
518.000000	100.087506
517.000000	100.078509
516.000000	100.091148
515.000000	100.097868
514.000000	100.077304
513.000000	100.085414
512.000000	100.087592
511.000000	100.069308
510.000000	100.077653
509.000000	100.069623
508.000000	100.066380
507.000000	100.078002
506.000000	100.075327
505.000000	100.084014
504.000000	100.075697
503.000000	100.064685
502.000000	100.083428
501.000000	100.082251
500.000000	100.067000
499.000000	100.068738
498.000000	100.085706
497.000000	100.066003
496.000000	100.093257
495.000000	100.074149
494.000000	100.087578
493.000000	100.071995
492.000000	100.052810
491.000000	100.067291
490.000000	100.044844
489.000000	100.081861
488.000000	100.098562
487.000000	100.058379
486.000000	100.082424
485.000000	100.076106
484.000000	100.091990
483.000000	100.082619
482.000000	100.075948
481.000000	100.073588
480.000000	100.074819
479.000000	100.089293
478.000000	100.085733
477.000000	100.068223
476.000000	100.069785
475.000000	100.070996
474.000000	100.074552
473.000000	100.066043
472.000000	100.066431
471.000000	100.090321
470.000000	100.078038
469.000000	100.057496
468.000000	100.055885
467.000000	100.082524
466.000000	100.074315
465.000000	100.064577
464.000000	100.061416
463.000000	100.072169
462.000000	100.082919
461.000000	100.098877
460.000000	100.083659
459.000000	100.076354
458.000000	100.064198
457.000000	100.050620
456.000000	100.068928
455.000000	100.050390
454.000000	100.068928
453.000000	100.082263
452.000000	100.082743
451.000000	100.064562
450.000000	100.079792
449.000000	100.072471
448.000000	100.097883
447.000000	100.038950
446.000000	100.081938
445.000000	100.071196
444.000000	100.104584
443.000000	100.067635
442.000000	100.065075
441.000000	100.079877
440.000000	100.080623
439.000000	100.062194
438.000000	100.044944
437.000000	100.057736
436.000000	100.057398
435.000000	100.079101
434.000000	100.047841
433.000000	100.063495
432.000000	100.051661
431.000000	100.058669
430.000000	100.062365
429.000000	100.057404
428.000000	100.067630
427.000000	100.046284
426.000000	100.059596
425.000000	100.072219
424.000000	100.078298
423.000000	100.081287
422.000000	100.060148
421.000000	100.065880
420.000000	100.054353
419.000000	100.052463
418.000000	100.077011
417.000000	100.082630
416.000000	100.062636
415.000000	100.060274
414.000000	100.078523
413.000000	100.075090
412.000000	100.077387
411.000000	100.070248
410.000000	100.064651
409.000000	100.042237
408.000000	100.029480
407.000000	100.052294
406.000000	100.061741
405.000000	100.056856
404.000000	100.066549
403.000000	100.062155
402.000000	100.053083
401.000000	100.046873
400.000000	100.064958
399.000000	100.036136
398.000000	100.052433
397.000000	100.081191
396.000000	100.093184
395.000000	100.099563
394.000000	100.074534
393.000000	100.051896
392.000000	100.042433
391.000000	100.060673
390.000000	100.074371
389.000000	100.075585
388.000000	100.074286
387.000000	100.057370
386.000000	100.034207
385.000000	100.035537
384.000000	100.061961
383.000000	100.028938
382.000000	100.008645
381.000000	100.037709
380.000000	100.067507
379.000000	100.059962
378.000000	100.059293
377.000000	100.054395
376.000000	100.042892
375.000000	100.073253
374.000000	100.097979
373.000000	100.099490
372.000000	100.059819
371.000000	100.039988
370.000000	100.036777
369.000000	100.051193
368.000000	100.082309
367.000000	100.075369
366.000000	100.026046
365.000000	100.034115
364.000000	100.085238
363.000000	100.107156
362.000000	100.088176
361.000000	100.044515
360.000000	100.066441
359.000000	100.092835
358.000000	100.081533
357.000000	100.075300
356.000000	100.038078
355.000000	100.017959
354.000000	100.025435
353.000000	100.053292
352.000000	100.062355
351.000000	100.045238
350.000000	100.029799
349.000000	100.011825
348.000000	100.025108
347.000000	100.063647
346.000000	100.091928
345.000000	100.040210
344.000000	99.985511
343.000000	100.009662
342.000000	100.063900
341.000000	100.046146
340.000000	100.031773
339.000000	100.014984
338.000000	100.013054
337.000000	100.038930
336.000000	100.070025
335.000000	100.061562
334.000000	100.065183
333.000000	100.085052
332.000000	100.050326
331.000000	100.021651
330.000000	100.043205
329.000000	100.023121
328.000000	100.007504
327.000000	100.057511
326.000000	100.068663
325.000000	100.046503
324.000000	99.992978
323.000000	100.002059
322.000000	100.016478
321.000000	100.022901
320.000000	100.037441
319.000000	100.018118
318.000000	100.002291
317.000000	100.026062
316.000000	100.002896
315.000000	99.960048
314.000000	99.979105
313.000000	99.996374
312.000000	100.033012
311.000000	99.955624
310.000000	99.962611
309.000000	99.990193
308.000000	100.011751
307.000000	100.035280
306.000000	100.032018
305.000000	100.012012
304.000000	99.985554
303.000000	100.034505
302.000000	100.022977
301.000000	99.988444
300.000000	99.990385
299.000000	99.988311
298.000000	99.985497
297.000000	100.041717
296.000000	100.006590
295.000000	99.992427
294.000000	99.988632
293.000000	99.969904
292.000000	99.975629
291.000000	99.975121
290.000000	99.993498
289.000000	99.960223
288.000000	99.954906
287.000000	99.970852
286.000000	99.983996
285.000000	99.993345
284.000000	100.012580
283.000000	99.992965
282.000000	99.935171
281.000000	99.938708
280.000000	99.958700
279.000000	99.964238
278.000000	99.968678
277.000000	99.972496
276.000000	99.964178
275.000000	99.931681
274.000000	99.961660
273.000000	99.967482
272.000000	99.946491
271.000000	99.922259
270.000000	99.939497
269.000000	99.953403
268.000000	99.934115
267.000000	99.922169
266.000000	99.964055
265.000000	99.926736
264.000000	99.910568
263.000000	99.940784
262.000000	99.953467
261.000000	99.946750
260.000000	99.921008
259.000000	99.929729
258.000000	99.918174
257.000000	99.895587
256.000000	99.922075
255.000000	99.936629
254.000000	99.933429
253.000000	99.911117
252.000000	99.910403
251.000000	99.899042
250.000000	99.922995
249.000000	99.885740
248.000000	99.895812
247.000000	99.877935
246.000000	99.900006
245.000000	99.887097
244.000000	99.883631
243.000000	99.895446
242.000000	99.880903
241.000000	99.879081
240.000000	99.864014
239.000000	99.862235
238.000000	99.882151
237.000000	99.847443
236.000000	99.850018
235.000000	99.858965
234.000000	99.842819
233.000000	99.828557
232.000000	99.857084
231.000000	99.842626
230.000000	99.832748
229.000000	99.854626
228.000000	99.821391
227.000000	99.817056
226.000000	99.809617
225.000000	99.779743
224.000000	99.774612
223.000000	99.785826
222.000000	99.785048
221.000000	99.788235
220.000000	99.798278
219.000000	99.774639
218.000000	99.722839
217.000000	99.717041
216.000000	99.687781
215.000000	99.690191
214.000000	99.707503
213.000000	99.704714
212.000000	99.703928
211.000000	99.689363
210.000000	99.706535
209.000000	99.647045
208.000000	99.636724
207.000000	99.683393
206.000000	99.647835
205.000000	99.588050
204.000000	99.628573
203.000000	99.630638
202.000000	99.566407
201.000000	99.537504
200.000000	99.564478
199.000000	99.534649
198.000000	99.519765
197.000000	99.444608
196.000000	99.390940
195.000000	99.304637
194.000000	99.161653
193.000000	99.097759
192.000000	98.895818
191.000000	98.696600
190.000000	98.205023
