PE UV       SUBTECH     SPECTRUM    ASCII       PEDS        4.00        
   -1
C2F6_9bar.Sample.Cycle8.ASC
26/05/13
20:24:47.00
26/05/13
20:24:47.00
Jinky Agarwala

190.000000
1
Lambda 850+
860L2410213
PerkinElmer UV WinLab 7.4.0.367 / 2.02.11 Lambda 800 UV/VIS, May 23 2018 11:23:04

0
0
1
0
0
UV/VIS
1
1
10
RBeamAtt,SBeamAtt,uv/vis detector
0
0
0
0
Fix
 
0
0.2
0
0
0
 
 
 
0
 
0
319.2
0
Front
100
 
S:100 R:100
 
0
0
0
 
0
 
 
 
0
 
 
0
0
0
0
0
 
 
 
 
0
0


0
0

0


#HDR
-1
-1
#GR
nm
%T
1.0
0.0
800.000000
-1.000000
611
8
100.249745
97.083871
#DATA
800.000000	100.184012
799.000000	100.226201
798.000000	100.194379
797.000000	100.240634
796.000000	100.176365
795.000000	100.249745
794.000000	100.202284
793.000000	100.156326
792.000000	100.177857
791.000000	100.175945
790.000000	100.176756
789.000000	100.146596
788.000000	100.182642
787.000000	100.177763
786.000000	100.200489
785.000000	100.158864
784.000000	100.150123
783.000000	100.126015
782.000000	100.209203
781.000000	100.240475
780.000000	100.207845
779.000000	100.183706
778.000000	100.171533
777.000000	100.182913
776.000000	100.194970
775.000000	100.150314
774.000000	100.228362
773.000000	100.191050
772.000000	100.179892
771.000000	100.199764
770.000000	100.184483
769.000000	100.230644
768.000000	100.204891
767.000000	100.185000
766.000000	100.231574
765.000000	100.175605
764.000000	100.206985
763.000000	100.141856
762.000000	100.172231
761.000000	100.173719
760.000000	100.209866
759.000000	100.155364
758.000000	100.191152
757.000000	100.173082
756.000000	100.159246
755.000000	100.156986
754.000000	100.160109
753.000000	100.196964
752.000000	100.177605
751.000000	100.171620
750.000000	100.152538
749.000000	100.198186
748.000000	100.193288
747.000000	100.205012
746.000000	100.176154
745.000000	100.174562
744.000000	100.188449
743.000000	100.189947
742.000000	100.173797
741.000000	100.139459
740.000000	100.157455
739.000000	100.159018
738.000000	100.167289
737.000000	100.161899
736.000000	100.143799
735.000000	100.154557
734.000000	100.135871
733.000000	100.131043
732.000000	100.161021
731.000000	100.184599
730.000000	100.167902
729.000000	100.211259
728.000000	100.187642
727.000000	100.179568
726.000000	100.180516
725.000000	100.167042
724.000000	100.172160
723.000000	100.145861
722.000000	100.152573
721.000000	100.188995
720.000000	100.193597
719.000000	100.185962
718.000000	100.180244
717.000000	100.186963
716.000000	100.154716
715.000000	100.167097
714.000000	100.169271
713.000000	100.178142
712.000000	100.177835
711.000000	100.183778
710.000000	100.187729
709.000000	100.186019
708.000000	100.189744
707.000000	100.194371
706.000000	100.206939
705.000000	100.195837
704.000000	100.206854
703.000000	100.178267
702.000000	100.170906
701.000000	100.180862
700.000000	100.156881
699.000000	100.148220
698.000000	100.165508
697.000000	100.187158
696.000000	100.186753
695.000000	100.197640
694.000000	100.179771
693.000000	100.178243
692.000000	100.192607
691.000000	100.214927
690.000000	100.196343
689.000000	100.182270
688.000000	100.178470
687.000000	100.151037
686.000000	100.161073
685.000000	100.166717
684.000000	100.158897
683.000000	100.161500
682.000000	100.168613
681.000000	100.159206
680.000000	100.160838
679.000000	100.179652
678.000000	100.185861
677.000000	100.174191
676.000000	100.178397
675.000000	100.173596
674.000000	100.164177
673.000000	100.166908
672.000000	100.177864
671.000000	100.189390
670.000000	100.183219
669.000000	100.184593
668.000000	100.181598
667.000000	100.183001
666.000000	100.181679
665.000000	100.189023
664.000000	100.188248
663.000000	100.179943
662.000000	100.190240
661.000000	100.183647
660.000000	100.173872
659.000000	100.177391
658.000000	100.188487
657.000000	100.181299
656.000000	100.173303
655.000000	100.174110
654.000000	100.173136
653.000000	100.179388
652.000000	100.185062
651.000000	100.174371
650.000000	100.160956
649.000000	100.158813
648.000000	100.164484
647.000000	100.185881
646.000000	100.190886
645.000000	100.158590
644.000000	100.150360
643.000000	100.172999
642.000000	100.157965
641.000000	100.161270
640.000000	100.188467
639.000000	100.191881
638.000000	100.186356
637.000000	100.172471
636.000000	100.178719
635.000000	100.172981
634.000000	100.169487
633.000000	100.179714
632.000000	100.177941
631.000000	100.157341
630.000000	100.154186
629.000000	100.164522
628.000000	100.165559
627.000000	100.166723
626.000000	100.165486
625.000000	100.157668
624.000000	100.158954
623.000000	100.152407
622.000000	100.150610
621.000000	100.147562
620.000000	100.186822
619.000000	100.176412
618.000000	100.157926
617.000000	100.165778
616.000000	100.164672
615.000000	100.140867
614.000000	100.148146
613.000000	100.168709
612.000000	100.181573
611.000000	100.190119
610.000000	100.180937
609.000000	100.178019
608.000000	100.168479
607.000000	100.159638
606.000000	100.171261
605.000000	100.173889
604.000000	100.182216
603.000000	100.165762
602.000000	100.175686
601.000000	100.173784
600.000000	100.165611
599.000000	100.156872
598.000000	100.169647
597.000000	100.169560
596.000000	100.188025
595.000000	100.174054
594.000000	100.174430
593.000000	100.176725
592.000000	100.161849
591.000000	100.160290
590.000000	100.162920
589.000000	100.161359
588.000000	100.184289
587.000000	100.160723
586.000000	100.154723
585.000000	100.182127
584.000000	100.171200
583.000000	100.176133
582.000000	100.182797
581.000000	100.190451
580.000000	100.179544
579.000000	100.183921
578.000000	100.171734
577.000000	100.158617
576.000000	100.159895
575.000000	100.172038
574.000000	100.159039
573.000000	100.170386
572.000000	100.176686
571.000000	100.186358
570.000000	100.173117
569.000000	100.191910
568.000000	100.167793
567.000000	100.167367
566.000000	100.179400
565.000000	100.165936
564.000000	100.178338
563.000000	100.176650
562.000000	100.155078
561.000000	100.152305
560.000000	100.170870
559.000000	100.172963
558.000000	100.160870
557.000000	100.162271
556.000000	100.166194
555.000000	100.174254
554.000000	100.174287
553.000000	100.154511
552.000000	100.146178
551.000000	100.167527
550.000000	100.172257
549.000000	100.150162
548.000000	100.169828
547.000000	100.172856
546.000000	100.155207
545.000000	100.165581
544.000000	100.171384
543.000000	100.161997
542.000000	100.179035
541.000000	100.154972
540.000000	100.152351
539.000000	100.183238
538.000000	100.179258
537.000000	100.139951
536.000000	100.154178
535.000000	100.180603
534.000000	100.172592
533.000000	100.193875
532.000000	100.176077
531.000000	100.158505
530.000000	100.163298
529.000000	100.155867
528.000000	100.170415
527.000000	100.157684
526.000000	100.160520
525.000000	100.172986
524.000000	100.161171
523.000000	100.166029
522.000000	100.164865
521.000000	100.156862
520.000000	100.156635
519.000000	100.172795
518.000000	100.158510
517.000000	100.167719
516.000000	100.167513
515.000000	100.149832
514.000000	100.166035
513.000000	100.154026
512.000000	100.159535
511.000000	100.172275
510.000000	100.159633
509.000000	100.150830
508.000000	100.159803
507.000000	100.152724
506.000000	100.141869
505.000000	100.165685
504.000000	100.139207
503.000000	100.163588
502.000000	100.149280
501.000000	100.168134
500.000000	100.146182
499.000000	100.138646
498.000000	100.171413
497.000000	100.133644
496.000000	100.176450
495.000000	100.161163
494.000000	100.169661
493.000000	100.155677
492.000000	100.127935
491.000000	100.161803
490.000000	100.129978
489.000000	100.149475
488.000000	100.177738
487.000000	100.169300
486.000000	100.150370
485.000000	100.153380
484.000000	100.150126
483.000000	100.135365
482.000000	100.140696
481.000000	100.134231
480.000000	100.148588
479.000000	100.169236
478.000000	100.174741
477.000000	100.152244
476.000000	100.149405
475.000000	100.156168
474.000000	100.144181
473.000000	100.155781
472.000000	100.152932
471.000000	100.172069
470.000000	100.148202
469.000000	100.143565
468.000000	100.135300
467.000000	100.161045
466.000000	100.142153
465.000000	100.154608
464.000000	100.149710
463.000000	100.150233
462.000000	100.156167
461.000000	100.151973
460.000000	100.138527
459.000000	100.156602
458.000000	100.147633
457.000000	100.147848
456.000000	100.154616
455.000000	100.136890
454.000000	100.153198
453.000000	100.173023
452.000000	100.163598
451.000000	100.149780
450.000000	100.161119
449.000000	100.135971
448.000000	100.172860
447.000000	100.132904
446.000000	100.169188
445.000000	100.175215
444.000000	100.163251
443.000000	100.133853
442.000000	100.141960
441.000000	100.159045
440.000000	100.156517
439.000000	100.158796
438.000000	100.131521
437.000000	100.133219
436.000000	100.127933
435.000000	100.157491
434.000000	100.105392
433.000000	100.136942
432.000000	100.121332
431.000000	100.111767
430.000000	100.126390
429.000000	100.139359
428.000000	100.127666
427.000000	100.126748
426.000000	100.129757
425.000000	100.150852
424.000000	100.156240
423.000000	100.127278
422.000000	100.108289
421.000000	100.138777
420.000000	100.143315
419.000000	100.132525
418.000000	100.166282
417.000000	100.157163
416.000000	100.135275
415.000000	100.133175
414.000000	100.134764
413.000000	100.128607
412.000000	100.164672
411.000000	100.145266
410.000000	100.130852
409.000000	100.124205
408.000000	100.140358
407.000000	100.153540
406.000000	100.154412
405.000000	100.131271
404.000000	100.124138
403.000000	100.139610
402.000000	100.138567
401.000000	100.109410
400.000000	100.123456
399.000000	100.114511
398.000000	100.138743
397.000000	100.176035
396.000000	100.158701
395.000000	100.163063
394.000000	100.148469
393.000000	100.127045
392.000000	100.117351
391.000000	100.120747
390.000000	100.140946
389.000000	100.144931
388.000000	100.161532
387.000000	100.130102
386.000000	100.110782
385.000000	100.111172
384.000000	100.130646
383.000000	100.120795
382.000000	100.089209
381.000000	100.107962
380.000000	100.126605
379.000000	100.100895
378.000000	100.104656
377.000000	100.142357
376.000000	100.137254
375.000000	100.162016
374.000000	100.200498
373.000000	100.169324
372.000000	100.134234
371.000000	100.133493
370.000000	100.113806
369.000000	100.098909
368.000000	100.108345
367.000000	100.114974
366.000000	100.081020
365.000000	100.091294
364.000000	100.139219
363.000000	100.148527
362.000000	100.134850
361.000000	100.127771
360.000000	100.139141
359.000000	100.140397
358.000000	100.134041
357.000000	100.129878
356.000000	100.107246
355.000000	100.112333
354.000000	100.117895
353.000000	100.106103
352.000000	100.109152
351.000000	100.094217
350.000000	100.068405
349.000000	100.069621
348.000000	100.115883
347.000000	100.137439
346.000000	100.103524
345.000000	100.066292
344.000000	100.064599
343.000000	100.090823
342.000000	100.105092
341.000000	100.060763
340.000000	100.044580
339.000000	100.084465
338.000000	100.093069
337.000000	100.100469
336.000000	100.145008
335.000000	100.116713
334.000000	100.090338
333.000000	100.096545
332.000000	100.094120
331.000000	100.063986
330.000000	100.081812
329.000000	100.094177
328.000000	100.086170
327.000000	100.125070
326.000000	100.121100
325.000000	100.107780
324.000000	100.051093
323.000000	100.027249
322.000000	100.070518
321.000000	100.060826
320.000000	100.079001
319.000000	100.074161
318.000000	100.071143
317.000000	100.082290
316.000000	100.047308
315.000000	100.002897
314.000000	100.027417
313.000000	100.062361
312.000000	100.034826
311.000000	99.990327
310.000000	100.005929
309.000000	100.044434
308.000000	100.053669
307.000000	100.075166
306.000000	100.056638
305.000000	100.042588
304.000000	100.018330
303.000000	100.048599
302.000000	100.035377
301.000000	100.039290
300.000000	100.044544
299.000000	100.009010
298.000000	100.014503
297.000000	100.039034
296.000000	100.015865
295.000000	100.024673
294.000000	100.007823
293.000000	100.006239
292.000000	100.010410
291.000000	99.983210
290.000000	100.008342
289.000000	99.990424
288.000000	99.994717
287.000000	100.001107
286.000000	99.985104
285.000000	100.007147
284.000000	100.016773
283.000000	99.993705
282.000000	99.958016
281.000000	99.958356
280.000000	99.973415
279.000000	99.968322
278.000000	99.949983
277.000000	99.958124
276.000000	99.962567
275.000000	99.946064
274.000000	99.964762
273.000000	99.925904
272.000000	99.938669
271.000000	99.934678
270.000000	99.925334
269.000000	99.888788
268.000000	99.916090
267.000000	99.894941
266.000000	99.912688
265.000000	99.887057
264.000000	99.879970
263.000000	99.902841
262.000000	99.907431
261.000000	99.900219
260.000000	99.879957
259.000000	99.869657
258.000000	99.880868
257.000000	99.882535
256.000000	99.868759
255.000000	99.864559
254.000000	99.860028
253.000000	99.849048
252.000000	99.866970
251.000000	99.835912
250.000000	99.838798
249.000000	99.858972
248.000000	99.839196
247.000000	99.826311
246.000000	99.826124
245.000000	99.808819
244.000000	99.798640
243.000000	99.801879
242.000000	99.781655
241.000000	99.801876
240.000000	99.775364
239.000000	99.774444
238.000000	99.757802
237.000000	99.741902
236.000000	99.760836
235.000000	99.759238
234.000000	99.731681
233.000000	99.742591
232.000000	99.725528
231.000000	99.737913
230.000000	99.713299
229.000000	99.710231
228.000000	99.667037
227.000000	99.676811
226.000000	99.677984
225.000000	99.644314
224.000000	99.628671
223.000000	99.634965
222.000000	99.630219
221.000000	99.618103
220.000000	99.592943
219.000000	99.585506
218.000000	99.534726
217.000000	99.538575
216.000000	99.508938
215.000000	99.483062
214.000000	99.477991
213.000000	99.466018
212.000000	99.454436
211.000000	99.448127
210.000000	99.434528
209.000000	99.364243
208.000000	99.360059
207.000000	99.393301
206.000000	99.326334
205.000000	99.273090
204.000000	99.288746
203.000000	99.282177
202.000000	99.245903
201.000000	99.142743
200.000000	99.175927
199.000000	99.165368
198.000000	99.070011
197.000000	98.990455
196.000000	98.921744
195.000000	98.800211
194.000000	98.559074
193.000000	98.413160
192.000000	98.211673
191.000000	97.820825
190.000000	97.083871
