PE UV       SUBTECH     SPECTRUM    ASCII       PEDS        4.00        
   -1
C2F6_3bar.Sample.Cycle10.ASC
26/05/13
18:26:53.00
26/05/13
18:26:53.00
Jinky Agarwala

190.000000
1
Lambda 850+
860L2410213
PerkinElmer UV WinLab 7.4.0.367 / 2.02.11 Lambda 800 UV/VIS, May 23 2018 11:23:04

0
0
1
0
0
UV/VIS
1
1
10
RBeamAtt,SBeamAtt,uv/vis detector
0
0
0
0
Fix
 
0
0.2
0
0
0
 
 
 
0
 
0
319.2
0
Front
100
 
S:100 R:100
 
0
0
0
 
0
 
 
 
0
 
 
0
0
0
0
0
 
 
 
 
0
0


0
0

0


#HDR
-1
-1
#GR
nm
%T
1.0
0.0
800.000000
-1.000000
611
8
100.111330
99.208304
#DATA
800.000000	100.003482
799.000000	100.086649
798.000000	100.086354
797.000000	100.111330
796.000000	100.001198
795.000000	100.067884
794.000000	100.005991
793.000000	99.994880
792.000000	100.011225
791.000000	100.026163
790.000000	100.006652
789.000000	100.027487
788.000000	100.002619
787.000000	100.000000
786.000000	99.992360
785.000000	100.002948
784.000000	99.978491
783.000000	99.981109
782.000000	100.031479
781.000000	100.072503
780.000000	100.034222
779.000000	100.031930
778.000000	100.040039
777.000000	100.042993
776.000000	100.056159
775.000000	99.974492
774.000000	100.018948
773.000000	100.035055
772.000000	99.999233
771.000000	99.994740
770.000000	100.035296
769.000000	100.030599
768.000000	100.047603
767.000000	100.001756
766.000000	100.005927
765.000000	99.988915
764.000000	100.041617
763.000000	100.027669
762.000000	99.996924
761.000000	99.997802
760.000000	100.037598
759.000000	100.012865
758.000000	100.021667
757.000000	100.041703
756.000000	100.000000
755.000000	99.978973
754.000000	100.017949
753.000000	100.037124
752.000000	100.013442
751.000000	100.011243
750.000000	99.990852
749.000000	100.003088
748.000000	100.031111
747.000000	100.000772
746.000000	100.003422
745.000000	100.002650
744.000000	99.994366
743.000000	100.025636
742.000000	99.988399
741.000000	99.977457
740.000000	100.013932
739.000000	99.988499
738.000000	100.011949
737.000000	100.001992
736.000000	100.039077
735.000000	100.021921
734.000000	99.987930
733.000000	100.030795
732.000000	100.002770
731.000000	100.028272
730.000000	100.018409
729.000000	100.019084
728.000000	100.001997
727.000000	100.018201
726.000000	100.018873
725.000000	100.046759
724.000000	100.005331
723.000000	99.984003
722.000000	99.980664
721.000000	100.005336
720.000000	99.995218
719.000000	100.021577
718.000000	100.005118
717.000000	99.988204
716.000000	100.015583
715.000000	99.995102
714.000000	100.011693
713.000000	100.026070
712.000000	100.008134
711.000000	99.987964
710.000000	99.999777
709.000000	100.029553
708.000000	100.019856
707.000000	100.013724
706.000000	100.024333
705.000000	100.023335
704.000000	100.045124
703.000000	100.020217
702.000000	100.004692
701.000000	99.994191
700.000000	99.969831
699.000000	99.995193
698.000000	100.031089
697.000000	100.032890
696.000000	100.038828
695.000000	100.014325
694.000000	100.000672
693.000000	100.023848
692.000000	100.008175
691.000000	100.001904
690.000000	100.012656
689.000000	100.034281
688.000000	100.010083
687.000000	100.003697
686.000000	100.017150
685.000000	100.006054
684.000000	100.000449
683.000000	99.986317
682.000000	100.010433
681.000000	100.005946
680.000000	100.001347
679.000000	100.034920
678.000000	100.027626
677.000000	100.003819
676.000000	100.025389
675.000000	100.018315
674.000000	100.008091
673.000000	100.014611
672.000000	100.028332
671.000000	100.016757
670.000000	99.996288
669.000000	100.013724
668.000000	100.032742
667.000000	100.038829
666.000000	100.026002
665.000000	100.027807
664.000000	100.033551
663.000000	100.024660
662.000000	100.019148
661.000000	100.026026
660.000000	100.021635
659.000000	100.009918
658.000000	100.022659
657.000000	100.020633
656.000000	100.013192
655.000000	100.011502
654.000000	100.017596
653.000000	100.030349
652.000000	100.022343
651.000000	100.018171
650.000000	100.016366
649.000000	100.005079
648.000000	99.989501
647.000000	99.998193
646.000000	100.018072
645.000000	100.009827
644.000000	100.006439
643.000000	100.011074
642.000000	99.993333
641.000000	99.998192
640.000000	100.025099
639.000000	100.032451
638.000000	100.017867
637.000000	100.019452
636.000000	100.017759
635.000000	100.018214
634.000000	100.018216
633.000000	100.034743
632.000000	100.034864
631.000000	100.014489
630.000000	100.015396
629.000000	100.022080
628.000000	100.012796
627.000000	100.012685
626.000000	100.001699
625.000000	99.992864
624.000000	100.011556
623.000000	100.017904
622.000000	100.019152
621.000000	100.012354
620.000000	100.023466
619.000000	100.009864
618.000000	100.002381
617.000000	100.013834
616.000000	100.008392
615.000000	100.007145
614.000000	100.011684
613.000000	100.002723
612.000000	100.020200
611.000000	100.022133
610.000000	100.013394
609.000000	100.030654
608.000000	100.020322
607.000000	100.003066
606.000000	100.003180
605.000000	100.007950
604.000000	100.025560
603.000000	100.012838
602.000000	100.017614
601.000000	100.027392
600.000000	100.022961
599.000000	100.006934
598.000000	100.020239
597.000000	100.010690
596.000000	100.013422
595.000000	100.018088
594.000000	100.013085
593.000000	100.008080
592.000000	99.992374
591.000000	99.997495
590.000000	100.005806
589.000000	100.017537
588.000000	100.022552
587.000000	100.006834
586.000000	100.003418
585.000000	100.024276
584.000000	100.023252
583.000000	100.013908
582.000000	100.016079
581.000000	100.018361
580.000000	100.018707
579.000000	100.025215
578.000000	100.013465
577.000000	100.000913
576.000000	99.985620
575.000000	100.017809
574.000000	100.012216
573.000000	100.010278
572.000000	100.003426
571.000000	100.033707
570.000000	100.020225
569.000000	100.038176
568.000000	100.026632
567.000000	100.000229
566.000000	100.020010
565.000000	100.018641
564.000000	100.023908
563.000000	100.020823
562.000000	100.016354
561.000000	100.003316
560.000000	100.022531
559.000000	100.021392
558.000000	100.012128
557.000000	100.005264
556.000000	100.003434
555.000000	100.002862
554.000000	100.015917
553.000000	100.001947
552.000000	100.007103
551.000000	100.019365
550.000000	100.001834
549.000000	99.999427
548.000000	100.001720
547.000000	100.038425
546.000000	100.006768
545.000000	100.026392
544.000000	100.030649
543.000000	100.017681
542.000000	100.009072
541.000000	100.029754
540.000000	100.015856
539.000000	100.017588
538.000000	100.020237
537.000000	99.993905
536.000000	100.020941
535.000000	100.016575
534.000000	100.013471
533.000000	100.018777
532.000000	100.029500
531.000000	100.016830
530.000000	100.001615
529.000000	99.997693
528.000000	100.029903
527.000000	100.047363
526.000000	100.017566
525.000000	100.017345
524.000000	100.019438
523.000000	100.016672
522.000000	100.014946
521.000000	100.022492
520.000000	100.011487
519.000000	100.026361
518.000000	100.004997
517.000000	100.020587
516.000000	100.027589
515.000000	100.018525
514.000000	100.018539
513.000000	100.005134
512.000000	100.041227
511.000000	100.014025
510.000000	100.018478
509.000000	100.012286
508.000000	100.005268
507.000000	100.020379
506.000000	100.008552
505.000000	100.008905
504.000000	100.009609
503.000000	100.008906
502.000000	100.011132
501.000000	100.013474
500.000000	100.032094
499.000000	100.008548
498.000000	100.042151
497.000000	100.010766
496.000000	100.020945
495.000000	100.012397
494.000000	100.019527
493.000000	99.995909
492.000000	99.989251
491.000000	100.019393
490.000000	99.992760
489.000000	100.008058
488.000000	100.029428
487.000000	100.021951
486.000000	100.018913
485.000000	100.002918
484.000000	100.046812
483.000000	100.001050
482.000000	100.017616
481.000000	100.012478
480.000000	100.019493
479.000000	100.028518
478.000000	100.009825
477.000000	99.993915
476.000000	100.001405
475.000000	99.985356
474.000000	99.998242
473.000000	100.003988
472.000000	99.995423
471.000000	100.015269
470.000000	100.024211
469.000000	99.999765
468.000000	100.000706
467.000000	100.007181
466.000000	99.997645
465.000000	100.024158
464.000000	100.001297
463.000000	100.000354
462.000000	99.993867
461.000000	100.008849
460.000000	100.014513
459.000000	100.029975
458.000000	100.022776
457.000000	99.996460
456.000000	100.014163
455.000000	100.014751
454.000000	100.002124
453.000000	100.011920
452.000000	100.023017
451.000000	100.013809
450.000000	100.015463
449.000000	99.996105
448.000000	100.026330
447.000000	99.976394
446.000000	100.012751
445.000000	100.018183
444.000000	100.028094
443.000000	99.998347
442.000000	99.993150
441.000000	99.996573
440.000000	100.002601
439.000000	100.032989
438.000000	100.001419
437.000000	99.987104
436.000000	100.002840
435.000000	100.025222
434.000000	100.006039
433.000000	100.005212
432.000000	100.003081
431.000000	99.988148
430.000000	100.005454
429.000000	100.014470
428.000000	100.003085
427.000000	100.008782
426.000000	100.005342
425.000000	100.021737
424.000000	100.014852
423.000000	100.011884
422.000000	99.996077
421.000000	100.027113
420.000000	100.022359
419.000000	100.008208
418.000000	100.041422
417.000000	100.049530
416.000000	100.019172
415.000000	100.027516
414.000000	100.025618
413.000000	100.019309
412.000000	100.024683
411.000000	100.020037
410.000000	100.000477
409.000000	99.981268
408.000000	99.979710
407.000000	99.995105
406.000000	99.984475
405.000000	99.972647
404.000000	99.988291
403.000000	100.016376
402.000000	100.001076
401.000000	99.998685
400.000000	100.021533
399.000000	99.995094
398.000000	100.007661
397.000000	100.031255
396.000000	100.034016
395.000000	100.031031
394.000000	100.013541
393.000000	99.999880
392.000000	99.976266
391.000000	100.000600
390.000000	100.035866
389.000000	100.017397
388.000000	100.024362
387.000000	100.013682
386.000000	100.001800
385.000000	100.004082
384.000000	100.008886
383.000000	100.011887
382.000000	99.982110
381.000000	99.991834
380.000000	100.013934
379.000000	100.011490
378.000000	100.004643
377.000000	100.003214
376.000000	99.998689
375.000000	100.013243
374.000000	100.072289
373.000000	100.070073
372.000000	99.993420
371.000000	99.971865
370.000000	99.989817
369.000000	100.026256
368.000000	100.036715
367.000000	99.991359
366.000000	99.950908
365.000000	99.976216
364.000000	100.018875
363.000000	100.041130
362.000000	100.012631
361.000000	99.995669
360.000000	100.027323
359.000000	100.028778
358.000000	100.002168
357.000000	100.012891
356.000000	100.017593
355.000000	100.004580
354.000000	99.980954
353.000000	99.988907
352.000000	99.993728
351.000000	100.010857
350.000000	99.954517
349.000000	99.944738
348.000000	100.000241
347.000000	100.034662
346.000000	100.036723
345.000000	100.003985
344.000000	99.991427
343.000000	100.004589
342.000000	100.018119
341.000000	99.994685
340.000000	99.989731
339.000000	100.010634
338.000000	100.011724
337.000000	99.995768
336.000000	100.005321
335.000000	100.043420
334.000000	100.033136
333.000000	100.014881
332.000000	100.001936
331.000000	99.991896
330.000000	100.028441
329.000000	99.996247
328.000000	99.974343
327.000000	100.016466
326.000000	100.034998
325.000000	100.025189
324.000000	99.961620
323.000000	99.941627
322.000000	100.017084
321.000000	100.019023
320.000000	100.012359
319.000000	99.972582
318.000000	99.972990
317.000000	100.001810
316.000000	99.974536
315.000000	99.956789
314.000000	99.988405
313.000000	100.021391
312.000000	99.983192
311.000000	99.913303
310.000000	99.949906
309.000000	99.973485
308.000000	99.982433
307.000000	100.019519
306.000000	99.986902
305.000000	99.973307
304.000000	99.951929
303.000000	99.995019
302.000000	99.962678
301.000000	99.990634
300.000000	100.013144
299.000000	99.944842
298.000000	99.975259
297.000000	99.990608
296.000000	99.990847
295.000000	99.974838
294.000000	99.971641
293.000000	99.976144
292.000000	99.984079
291.000000	99.972180
290.000000	99.971171
289.000000	99.986373
288.000000	99.983167
287.000000	99.999877
286.000000	99.969592
285.000000	99.961428
284.000000	99.978417
283.000000	99.979017
282.000000	99.955793
281.000000	99.953908
280.000000	99.943738
279.000000	99.966342
278.000000	99.950107
277.000000	99.970637
276.000000	99.955254
275.000000	99.949040
274.000000	99.976921
273.000000	99.945638
272.000000	99.964617
271.000000	99.956162
270.000000	99.930055
269.000000	99.940480
268.000000	99.943935
267.000000	99.932862
266.000000	99.973010
265.000000	99.956962
264.000000	99.938679
263.000000	99.931454
262.000000	99.964540
261.000000	99.958943
260.000000	99.981465
259.000000	99.970648
258.000000	99.955854
257.000000	99.933747
256.000000	99.939475
255.000000	99.948806
254.000000	99.938397
253.000000	99.930979
252.000000	99.912389
251.000000	99.924591
250.000000	99.975324
249.000000	99.930477
248.000000	99.939296
247.000000	99.919283
246.000000	99.952231
245.000000	99.963272
244.000000	99.918962
243.000000	99.922356
242.000000	99.926026
241.000000	99.929690
240.000000	99.905572
239.000000	99.926206
238.000000	99.929119
237.000000	99.919559
236.000000	99.935407
235.000000	99.935471
234.000000	99.899731
233.000000	99.901213
232.000000	99.940391
231.000000	99.904574
230.000000	99.928355
229.000000	99.936368
228.000000	99.886072
227.000000	99.926749
226.000000	99.923675
225.000000	99.914926
224.000000	99.893783
223.000000	99.891306
222.000000	99.911614
221.000000	99.914126
220.000000	99.918514
219.000000	99.926920
218.000000	99.879141
217.000000	99.898396
216.000000	99.893702
215.000000	99.872439
214.000000	99.863003
213.000000	99.900808
212.000000	99.901224
211.000000	99.911649
210.000000	99.894769
209.000000	99.858534
208.000000	99.873255
207.000000	99.855863
206.000000	99.842120
205.000000	99.859101
204.000000	99.850034
203.000000	99.841777
202.000000	99.831166
201.000000	99.831868
200.000000	99.852090
199.000000	99.815697
198.000000	99.844618
197.000000	99.795353
196.000000	99.754695
195.000000	99.739053
194.000000	99.684068
193.000000	99.636543
192.000000	99.499130
191.000000	99.403086
190.000000	99.208304
