PE UV       SUBTECH     SPECTRUM    ASCII       PEDS        4.00        
   -1
C2F6_9bar.Sample.Cycle6.ASC
26/05/13
20:24:47.00
26/05/13
20:24:47.00
Jinky Agarwala

190.000000
1
Lambda 850+
860L2410213
PerkinElmer UV WinLab 7.4.0.367 / 2.02.11 Lambda 800 UV/VIS, May 23 2018 11:23:04

0
0
1
0
0
UV/VIS
1
1
10
RBeamAtt,SBeamAtt,uv/vis detector
0
0
0
0
Fix
 
0
0.2
0
0
0
 
 
 
0
 
0
319.2
0
Front
100
 
S:100 R:100
 
0
0
0
 
0
 
 
 
0
 
 
0
0
0
0
0
 
 
 
 
0
0


0
0

0


#HDR
-1
-1
#GR
nm
%T
1.0
0.0
800.000000
-1.000000
611
8
100.255775
97.100238
#DATA
800.000000	100.184664
799.000000	100.202362
798.000000	100.215614
797.000000	100.255775
796.000000	100.209482
795.000000	100.240374
794.000000	100.159147
793.000000	100.120376
792.000000	100.141021
791.000000	100.200255
790.000000	100.207723
789.000000	100.166666
788.000000	100.199771
787.000000	100.190639
786.000000	100.128894
785.000000	100.182339
784.000000	100.170212
783.000000	100.108107
782.000000	100.223741
781.000000	100.233367
780.000000	100.214514
779.000000	100.169600
778.000000	100.188817
777.000000	100.182804
776.000000	100.201538
775.000000	100.193010
774.000000	100.221462
773.000000	100.188859
772.000000	100.192271
771.000000	100.173794
770.000000	100.153133
769.000000	100.213974
768.000000	100.207962
767.000000	100.201349
766.000000	100.161663
765.000000	100.184385
764.000000	100.202702
763.000000	100.156679
762.000000	100.155536
761.000000	100.167895
760.000000	100.193926
759.000000	100.197367
758.000000	100.198851
757.000000	100.179464
756.000000	100.173443
755.000000	100.194636
754.000000	100.190611
753.000000	100.182423
752.000000	100.157994
751.000000	100.193775
750.000000	100.150333
749.000000	100.200282
748.000000	100.192736
747.000000	100.132077
746.000000	100.161144
745.000000	100.185272
744.000000	100.204245
743.000000	100.195140
742.000000	100.197663
741.000000	100.182336
740.000000	100.162652
739.000000	100.138118
738.000000	100.190966
737.000000	100.173961
736.000000	100.176124
735.000000	100.150461
734.000000	100.142072
733.000000	100.154194
732.000000	100.168003
731.000000	100.174621
730.000000	100.173003
729.000000	100.178749
728.000000	100.191193
727.000000	100.175239
726.000000	100.178185
725.000000	100.175039
724.000000	100.146502
723.000000	100.164746
722.000000	100.151906
721.000000	100.153753
720.000000	100.166242
719.000000	100.175396
718.000000	100.188366
717.000000	100.188743
716.000000	100.153715
715.000000	100.150398
714.000000	100.162812
713.000000	100.193628
712.000000	100.167807
711.000000	100.162380
710.000000	100.161643
709.000000	100.178547
708.000000	100.180485
707.000000	100.173952
706.000000	100.203144
705.000000	100.199968
704.000000	100.218135
703.000000	100.194798
702.000000	100.176938
701.000000	100.131150
700.000000	100.131852
699.000000	100.159622
698.000000	100.175237
697.000000	100.185144
696.000000	100.193578
695.000000	100.190701
694.000000	100.199919
693.000000	100.176339
692.000000	100.164164
691.000000	100.173375
690.000000	100.170358
689.000000	100.178349
688.000000	100.174549
687.000000	100.170085
686.000000	100.191898
685.000000	100.176696
684.000000	100.148356
683.000000	100.130770
682.000000	100.165808
681.000000	100.159991
680.000000	100.168246
679.000000	100.184593
678.000000	100.180358
677.000000	100.184524
676.000000	100.178284
675.000000	100.161461
674.000000	100.158671
673.000000	100.173652
672.000000	100.191467
671.000000	100.184104
670.000000	100.170510
669.000000	100.169632
668.000000	100.170347
667.000000	100.197632
666.000000	100.199576
665.000000	100.201182
664.000000	100.182619
663.000000	100.166880
662.000000	100.191029
661.000000	100.189844
660.000000	100.177929
659.000000	100.185393
658.000000	100.197731
657.000000	100.193250
656.000000	100.176235
655.000000	100.162044
654.000000	100.166481
653.000000	100.171265
652.000000	100.174229
651.000000	100.191526
650.000000	100.179467
649.000000	100.156555
648.000000	100.167645
647.000000	100.174588
646.000000	100.173831
645.000000	100.163108
644.000000	100.169339
643.000000	100.187011
642.000000	100.160903
641.000000	100.152455
640.000000	100.176596
639.000000	100.176956
638.000000	100.170638
637.000000	100.174054
636.000000	100.181433
635.000000	100.191308
634.000000	100.169034
633.000000	100.182996
632.000000	100.189034
631.000000	100.167189
630.000000	100.160639
629.000000	100.178902
628.000000	100.190698
627.000000	100.191188
626.000000	100.160049
625.000000	100.153817
624.000000	100.164506
623.000000	100.155126
622.000000	100.158089
621.000000	100.177143
620.000000	100.186596
619.000000	100.182647
618.000000	100.161781
617.000000	100.161469
616.000000	100.173858
615.000000	100.156065
614.000000	100.153138
613.000000	100.175970
612.000000	100.183049
611.000000	100.181379
610.000000	100.176396
609.000000	100.194594
608.000000	100.169160
607.000000	100.169402
606.000000	100.179211
605.000000	100.173321
604.000000	100.184374
603.000000	100.163148
602.000000	100.176822
601.000000	100.164691
600.000000	100.167544
599.000000	100.163238
598.000000	100.178061
597.000000	100.193214
596.000000	100.187798
595.000000	100.173940
594.000000	100.179095
593.000000	100.158177
592.000000	100.157524
591.000000	100.185335
590.000000	100.173394
589.000000	100.163181
588.000000	100.172785
587.000000	100.154002
586.000000	100.161559
585.000000	100.181101
584.000000	100.158320
583.000000	100.174423
582.000000	100.188043
581.000000	100.166616
580.000000	100.176920
579.000000	100.188599
578.000000	100.187710
577.000000	100.173566
576.000000	100.169482
575.000000	100.164161
574.000000	100.168287
573.000000	100.177352
572.000000	100.161039
571.000000	100.186130
570.000000	100.186600
569.000000	100.198996
568.000000	100.170422
567.000000	100.180057
566.000000	100.178371
565.000000	100.165593
564.000000	100.167356
563.000000	100.187061
562.000000	100.160110
561.000000	100.163053
560.000000	100.179333
559.000000	100.166100
558.000000	100.184783
557.000000	100.166276
556.000000	100.145591
555.000000	100.167499
554.000000	100.170280
553.000000	100.168942
552.000000	100.158894
551.000000	100.164777
550.000000	100.167328
549.000000	100.167586
548.000000	100.172924
547.000000	100.159895
546.000000	100.154289
545.000000	100.165122
544.000000	100.170580
543.000000	100.177037
542.000000	100.165943
541.000000	100.170481
540.000000	100.155108
539.000000	100.170823
538.000000	100.170404
537.000000	100.143171
536.000000	100.175694
535.000000	100.177956
534.000000	100.157164
533.000000	100.180166
532.000000	100.175155
531.000000	100.166459
530.000000	100.165028
529.000000	100.157597
528.000000	100.183693
527.000000	100.185871
526.000000	100.174041
525.000000	100.154716
524.000000	100.163716
523.000000	100.167418
522.000000	100.174018
521.000000	100.165209
520.000000	100.161624
519.000000	100.187195
518.000000	100.165366
517.000000	100.150622
516.000000	100.151565
515.000000	100.162182
514.000000	100.155192
513.000000	100.159510
512.000000	100.175885
511.000000	100.160821
510.000000	100.169573
509.000000	100.167329
508.000000	100.157930
507.000000	100.153427
506.000000	100.142220
505.000000	100.152093
504.000000	100.148113
503.000000	100.144604
502.000000	100.171192
501.000000	100.147512
500.000000	100.161995
499.000000	100.153752
498.000000	100.181716
497.000000	100.144878
496.000000	100.161005
495.000000	100.169233
494.000000	100.164867
493.000000	100.160586
492.000000	100.151887
491.000000	100.179911
490.000000	100.136168
489.000000	100.150409
488.000000	100.165943
487.000000	100.164163
486.000000	100.172319
485.000000	100.157582
484.000000	100.165069
483.000000	100.143300
482.000000	100.132296
481.000000	100.141695
480.000000	100.162711
479.000000	100.178352
478.000000	100.173220
477.000000	100.155169
476.000000	100.141795
475.000000	100.159097
474.000000	100.142188
473.000000	100.146514
472.000000	100.135326
471.000000	100.157504
470.000000	100.164421
469.000000	100.139685
468.000000	100.148713
467.000000	100.151039
466.000000	100.143566
465.000000	100.144120
464.000000	100.149474
463.000000	100.149172
462.000000	100.157818
461.000000	100.168492
460.000000	100.160592
459.000000	100.150466
458.000000	100.132763
457.000000	100.099470
456.000000	100.143757
455.000000	100.143263
454.000000	100.155559
453.000000	100.157444
452.000000	100.157696
451.000000	100.154029
450.000000	100.140345
449.000000	100.145768
448.000000	100.174513
447.000000	100.144943
446.000000	100.162812
445.000000	100.171082
444.000000	100.153807
443.000000	100.122522
442.000000	100.147157
441.000000	100.152428
440.000000	100.172358
439.000000	100.147090
438.000000	100.151865
437.000000	100.142092
436.000000	100.125921
435.000000	100.149912
434.000000	100.143049
433.000000	100.165254
432.000000	100.138750
431.000000	100.117337
430.000000	100.105997
429.000000	100.127499
428.000000	100.146294
427.000000	100.128409
426.000000	100.157774
425.000000	100.164750
424.000000	100.162537
423.000000	100.151165
422.000000	100.127903
421.000000	100.142106
420.000000	100.127497
419.000000	100.135023
418.000000	100.130217
417.000000	100.143233
416.000000	100.137656
415.000000	100.136034
414.000000	100.145130
413.000000	100.142075
412.000000	100.145235
411.000000	100.124276
410.000000	100.132761
409.000000	100.141744
408.000000	100.140238
407.000000	100.119394
406.000000	100.124915
405.000000	100.134137
404.000000	100.111234
403.000000	100.124789
402.000000	100.130317
401.000000	100.115747
400.000000	100.130274
399.000000	100.140477
398.000000	100.142095
397.000000	100.147294
396.000000	100.142651
395.000000	100.160187
394.000000	100.132771
393.000000	100.107868
392.000000	100.114355
391.000000	100.129980
390.000000	100.160618
389.000000	100.161248
388.000000	100.156732
387.000000	100.133943
386.000000	100.125065
385.000000	100.130742
384.000000	100.132087
383.000000	100.106506
382.000000	100.072160
381.000000	100.112885
380.000000	100.124443
379.000000	100.098621
378.000000	100.127754
377.000000	100.141999
376.000000	100.111876
375.000000	100.134338
374.000000	100.151867
373.000000	100.150909
372.000000	100.136866
371.000000	100.132416
370.000000	100.078586
369.000000	100.108860
368.000000	100.181056
367.000000	100.121575
366.000000	100.075498
365.000000	100.139103
364.000000	100.164346
363.000000	100.155141
362.000000	100.145556
361.000000	100.094806
360.000000	100.080524
359.000000	100.108368
358.000000	100.108871
357.000000	100.113493
356.000000	100.097003
355.000000	100.061831
354.000000	100.049424
353.000000	100.061974
352.000000	100.089734
351.000000	100.114725
350.000000	100.099772
349.000000	100.073602
348.000000	100.096932
347.000000	100.137680
346.000000	100.164769
345.000000	100.105898
344.000000	100.087782
343.000000	100.107128
342.000000	100.082986
341.000000	100.064870
340.000000	100.099791
339.000000	100.094011
338.000000	100.097420
337.000000	100.106514
336.000000	100.137751
335.000000	100.134009
334.000000	100.054420
333.000000	100.073921
332.000000	100.079482
331.000000	100.074630
330.000000	100.124533
329.000000	100.129161
328.000000	100.090164
327.000000	100.081483
326.000000	100.079441
325.000000	100.069996
324.000000	100.060658
323.000000	100.063217
322.000000	100.090631
321.000000	100.108082
320.000000	100.070641
319.000000	100.032853
318.000000	100.037742
317.000000	100.084703
316.000000	100.073376
315.000000	100.008328
314.000000	100.028866
313.000000	100.049672
312.000000	100.066387
311.000000	100.028778
310.000000	100.054087
309.000000	100.072645
308.000000	100.045188
307.000000	100.058314
306.000000	100.059670
305.000000	100.040768
304.000000	100.006919
303.000000	100.037786
302.000000	100.051424
301.000000	100.046223
300.000000	100.024828
299.000000	99.977109
298.000000	100.014138
297.000000	100.036228
296.000000	100.023676
295.000000	100.024551
294.000000	100.007212
293.000000	99.994739
292.000000	100.006368
291.000000	99.999755
290.000000	100.022940
289.000000	100.005033
288.000000	99.979972
287.000000	99.990161
286.000000	99.987320
285.000000	100.013186
284.000000	100.005920
283.000000	99.988028
282.000000	99.978020
281.000000	99.988508
280.000000	99.941017
279.000000	99.973148
278.000000	99.947507
277.000000	99.952673
276.000000	99.938520
275.000000	99.919902
274.000000	99.958434
273.000000	99.952464
272.000000	99.922033
271.000000	99.958273
270.000000	99.908687
269.000000	99.882078
268.000000	99.904156
267.000000	99.890838
266.000000	99.913061
265.000000	99.890291
264.000000	99.902981
263.000000	99.887290
262.000000	99.882050
261.000000	99.906191
260.000000	99.878464
259.000000	99.893412
258.000000	99.882858
257.000000	99.844996
256.000000	99.874848
255.000000	99.869654
254.000000	99.853073
253.000000	99.846193
252.000000	99.853940
251.000000	99.833432
250.000000	99.831110
249.000000	99.802586
248.000000	99.851709
247.000000	99.805017
246.000000	99.846915
245.000000	99.809685
244.000000	99.794810
243.000000	99.817062
242.000000	99.774504
241.000000	99.798674
240.000000	99.754708
239.000000	99.765726
238.000000	99.779875
237.000000	99.740922
236.000000	99.773926
235.000000	99.765838
234.000000	99.727528
233.000000	99.732945
232.000000	99.737743
231.000000	99.712621
230.000000	99.733961
229.000000	99.700564
228.000000	99.667772
227.000000	99.666995
226.000000	99.673559
225.000000	99.628555
224.000000	99.620283
223.000000	99.612706
222.000000	99.611624
221.000000	99.608534
220.000000	99.586963
219.000000	99.544906
218.000000	99.540111
217.000000	99.493111
216.000000	99.504152
215.000000	99.451108
214.000000	99.457841
213.000000	99.441347
212.000000	99.451373
211.000000	99.433658
210.000000	99.400351
209.000000	99.351477
208.000000	99.342452
207.000000	99.365487
206.000000	99.314068
205.000000	99.259328
204.000000	99.272288
203.000000	99.270271
202.000000	99.220757
201.000000	99.136719
200.000000	99.155739
199.000000	99.122400
198.000000	99.063373
197.000000	98.947221
196.000000	98.897078
195.000000	98.784909
194.000000	98.560019
193.000000	98.412756
192.000000	98.148847
191.000000	97.858548
190.000000	97.100238
