PE UV       SUBTECH     SPECTRUM    ASCII       PEDS        4.00        
   -1
C2F6_9bar.Sample.Cycle5.ASC
26/05/13
20:24:47.00
26/05/13
20:24:47.00
Jinky Agarwala

190.000000
1
Lambda 850+
860L2410213
PerkinElmer UV WinLab 7.4.0.367 / 2.02.11 Lambda 800 UV/VIS, May 23 2018 11:23:04

0
0
1
0
0
UV/VIS
1
1
10
RBeamAtt,SBeamAtt,uv/vis detector
0
0
0
0
Fix
 
0
0.2
0
0
0
 
 
 
0
 
0
319.2
0
Front
100
 
S:100 R:100
 
0
0
0
 
0
 
 
 
0
 
 
0
0
0
0
0
 
 
 
 
0
0


0
0

0


#HDR
-1
-1
#GR
nm
%T
1.0
0.0
800.000000
-1.000000
611
8
100.270155
97.107762
#DATA
800.000000	100.168451
799.000000	100.221629
798.000000	100.210931
797.000000	100.270155
796.000000	100.196301
795.000000	100.208666
794.000000	100.160237
793.000000	100.124189
792.000000	100.171209
791.000000	100.206142
790.000000	100.201944
789.000000	100.194807
788.000000	100.221483
787.000000	100.172416
786.000000	100.175824
785.000000	100.196424
784.000000	100.173924
783.000000	100.134642
782.000000	100.200896
781.000000	100.234351
780.000000	100.182042
779.000000	100.188408
778.000000	100.163219
777.000000	100.182804
776.000000	100.210515
775.000000	100.182281
774.000000	100.184989
773.000000	100.212849
772.000000	100.180001
771.000000	100.183766
770.000000	100.151598
769.000000	100.183485
768.000000	100.206536
767.000000	100.220332
766.000000	100.196125
765.000000	100.176702
764.000000	100.190953
763.000000	100.160851
762.000000	100.176076
761.000000	100.169324
760.000000	100.196894
759.000000	100.181093
758.000000	100.184663
757.000000	100.211374
756.000000	100.179936
755.000000	100.188912
754.000000	100.170901
753.000000	100.206988
752.000000	100.189064
751.000000	100.222433
750.000000	100.168409
749.000000	100.196642
748.000000	100.178284
747.000000	100.183496
746.000000	100.189509
745.000000	100.189799
744.000000	100.228105
743.000000	100.213814
742.000000	100.155014
741.000000	100.121005
740.000000	100.150378
739.000000	100.161783
738.000000	100.181119
737.000000	100.186576
736.000000	100.184426
735.000000	100.167400
734.000000	100.166323
733.000000	100.176460
732.000000	100.170552
731.000000	100.193136
730.000000	100.176552
729.000000	100.227791
728.000000	100.183314
727.000000	100.159258
726.000000	100.147544
725.000000	100.190144
724.000000	100.177380
723.000000	100.145306
722.000000	100.153573
721.000000	100.184881
720.000000	100.183923
719.000000	100.162049
718.000000	100.179576
717.000000	100.180842
716.000000	100.174752
715.000000	100.169991
714.000000	100.189094
713.000000	100.190842
712.000000	100.143182
711.000000	100.161154
710.000000	100.188732
709.000000	100.196279
708.000000	100.199895
707.000000	100.188234
706.000000	100.198010
705.000000	100.204211
704.000000	100.212103
703.000000	100.194240
702.000000	100.163310
701.000000	100.151035
700.000000	100.136545
699.000000	100.151797
698.000000	100.191452
697.000000	100.190402
696.000000	100.184962
695.000000	100.179398
694.000000	100.186487
693.000000	100.187423
692.000000	100.184096
691.000000	100.188495
690.000000	100.185815
689.000000	100.178909
688.000000	100.158976
687.000000	100.168180
686.000000	100.188199
685.000000	100.175687
684.000000	100.172802
683.000000	100.175856
682.000000	100.186899
681.000000	100.148435
680.000000	100.170042
679.000000	100.202782
678.000000	100.196754
677.000000	100.184973
676.000000	100.201089
675.000000	100.192248
674.000000	100.170695
673.000000	100.167245
672.000000	100.181686
671.000000	100.210309
670.000000	100.194242
669.000000	100.177844
668.000000	100.174285
667.000000	100.189416
666.000000	100.199464
665.000000	100.190937
664.000000	100.172260
663.000000	100.179830
662.000000	100.177850
661.000000	100.179591
660.000000	100.188972
659.000000	100.176828
658.000000	100.186571
657.000000	100.188628
656.000000	100.178602
655.000000	100.166780
654.000000	100.167496
653.000000	100.168444
652.000000	100.164074
651.000000	100.178209
650.000000	100.186465
649.000000	100.166601
648.000000	100.168661
647.000000	100.191754
646.000000	100.181173
645.000000	100.165706
644.000000	100.171259
643.000000	100.176728
642.000000	100.152880
641.000000	100.161609
640.000000	100.186658
639.000000	100.183288
638.000000	100.159782
637.000000	100.165572
636.000000	100.174986
635.000000	100.173094
634.000000	100.178765
633.000000	100.187296
632.000000	100.198316
631.000000	100.177264
630.000000	100.172299
629.000000	100.184677
628.000000	100.172240
627.000000	100.178050
626.000000	100.179871
625.000000	100.162085
624.000000	100.162466
623.000000	100.170537
622.000000	100.158656
621.000000	100.152322
620.000000	100.175373
619.000000	100.176412
618.000000	100.161781
617.000000	100.161809
616.000000	100.175899
615.000000	100.169789
614.000000	100.152117
613.000000	100.154073
612.000000	100.187361
611.000000	100.176498
610.000000	100.156418
609.000000	100.177451
608.000000	100.175405
607.000000	100.163839
606.000000	100.164674
605.000000	100.166847
604.000000	100.184942
603.000000	100.177123
602.000000	100.192164
601.000000	100.179580
600.000000	100.176978
599.000000	100.161988
598.000000	100.171580
597.000000	100.168991
596.000000	100.173693
595.000000	100.172461
594.000000	100.188426
593.000000	100.174791
592.000000	100.174483
591.000000	100.176911
590.000000	100.165424
589.000000	100.163067
588.000000	100.156498
587.000000	100.170861
586.000000	100.163951
585.000000	100.176314
584.000000	100.182826
583.000000	100.174651
582.000000	100.175841
581.000000	100.167984
580.000000	100.181483
579.000000	100.198639
578.000000	100.192844
577.000000	100.158503
576.000000	100.147341
575.000000	100.155256
574.000000	100.163149
573.000000	100.167759
572.000000	100.177028
571.000000	100.187958
570.000000	100.181230
569.000000	100.180823
568.000000	100.157506
567.000000	100.164623
566.000000	100.154245
565.000000	100.177715
564.000000	100.181998
563.000000	100.175734
562.000000	100.147415
561.000000	100.144873
560.000000	100.174529
559.000000	100.166214
558.000000	100.168078
557.000000	100.169938
556.000000	100.173519
555.000000	100.175513
554.000000	100.184479
553.000000	100.171462
552.000000	100.155915
551.000000	100.166038
550.000000	100.165609
549.000000	100.150735
548.000000	100.161571
547.000000	100.170447
546.000000	100.156010
545.000000	100.167187
544.000000	100.189636
543.000000	100.155682
542.000000	100.160201
541.000000	100.162899
540.000000	100.155912
539.000000	100.188986
538.000000	100.169714
537.000000	100.152601
536.000000	100.172932
535.000000	100.182560
534.000000	100.164878
533.000000	100.178669
532.000000	100.174118
531.000000	100.167266
530.000000	100.162261
529.000000	100.157482
528.000000	100.182538
527.000000	100.180903
526.000000	100.159134
525.000000	100.156797
524.000000	100.169848
523.000000	100.165913
522.000000	100.171122
521.000000	100.152572
520.000000	100.164873
519.000000	100.165828
518.000000	100.163274
517.000000	100.163532
516.000000	100.170889
515.000000	100.169056
514.000000	100.164520
513.000000	100.150875
512.000000	100.161403
511.000000	100.158718
510.000000	100.163609
509.000000	100.142288
508.000000	100.161091
507.000000	100.156472
506.000000	100.157801
505.000000	100.144476
504.000000	100.154206
503.000000	100.136050
502.000000	100.142367
501.000000	100.166259
500.000000	100.140208
499.000000	100.159490
498.000000	100.184292
497.000000	100.138325
496.000000	100.165451
495.000000	100.161631
494.000000	100.157150
493.000000	100.153457
492.000000	100.127585
491.000000	100.146382
490.000000	100.134299
489.000000	100.159635
488.000000	100.178789
487.000000	100.179341
486.000000	100.155974
485.000000	100.133069
484.000000	100.180011
483.000000	100.164422
482.000000	100.136262
481.000000	100.139829
480.000000	100.149288
479.000000	100.144108
478.000000	100.153688
477.000000	100.156574
476.000000	100.159358
475.000000	100.140001
474.000000	100.137734
473.000000	100.157306
472.000000	100.171476
471.000000	100.161380
470.000000	100.167476
469.000000	100.141566
468.000000	100.153419
467.000000	100.144917
466.000000	100.132495
465.000000	100.168160
464.000000	100.151950
463.000000	100.140917
462.000000	100.163480
461.000000	100.172268
460.000000	100.152686
459.000000	100.137720
458.000000	100.146925
457.000000	100.145842
456.000000	100.172084
455.000000	100.142791
454.000000	100.152136
453.000000	100.161457
452.000000	100.149906
451.000000	100.134790
450.000000	100.161119
449.000000	100.162646
448.000000	100.180535
447.000000	100.133966
446.000000	100.139317
445.000000	100.135307
444.000000	100.162896
443.000000	100.149670
442.000000	100.150936
441.000000	100.151364
440.000000	100.162428
439.000000	100.144252
438.000000	100.154112
437.000000	100.147416
436.000000	100.125684
435.000000	100.148965
434.000000	100.128365
433.000000	100.142865
432.000000	100.136380
431.000000	100.121130
430.000000	100.131251
429.000000	100.137224
428.000000	100.137870
427.000000	100.140396
426.000000	100.136049
425.000000	100.170570
424.000000	100.159211
423.000000	100.132626
422.000000	100.116135
421.000000	100.152571
420.000000	100.139152
419.000000	100.139305
418.000000	100.180447
417.000000	100.159425
416.000000	100.129797
415.000000	100.142347
414.000000	100.113435
413.000000	100.113946
412.000000	100.154656
411.000000	100.158386
410.000000	100.140037
409.000000	100.117881
408.000000	100.125081
407.000000	100.148884
406.000000	100.147964
405.000000	100.145007
404.000000	100.130470
403.000000	100.153476
402.000000	100.149566
401.000000	100.117421
400.000000	100.130753
399.000000	100.128631
398.000000	100.127969
397.000000	100.151605
396.000000	100.151395
395.000000	100.142336
394.000000	100.114078
393.000000	100.113621
392.000000	100.111358
391.000000	100.112354
390.000000	100.112277
389.000000	100.130774
388.000000	100.159012
387.000000	100.158787
386.000000	100.109462
385.000000	100.098086
384.000000	100.108792
383.000000	100.096540
382.000000	100.078043
381.000000	100.099916
380.000000	100.109428
379.000000	100.112145
378.000000	100.114062
377.000000	100.120932
376.000000	100.109374
375.000000	100.141019
374.000000	100.189386
373.000000	100.176021
372.000000	100.136268
371.000000	100.116971
370.000000	100.111889
369.000000	100.110898
368.000000	100.117584
367.000000	100.124935
366.000000	100.075378
365.000000	100.101144
364.000000	100.131885
363.000000	100.132171
362.000000	100.136053
361.000000	100.101303
360.000000	100.106883
359.000000	100.127874
358.000000	100.118867
357.000000	100.129999
356.000000	100.123514
355.000000	100.082924
354.000000	100.050991
353.000000	100.059080
352.000000	100.080326
351.000000	100.075639
350.000000	100.067681
349.000000	100.118005
348.000000	100.147027
347.000000	100.142753
346.000000	100.150757
345.000000	100.095876
344.000000	100.074742
343.000000	100.070533
342.000000	100.084194
341.000000	100.096037
340.000000	100.092059
339.000000	100.092078
338.000000	100.088959
337.000000	100.094303
336.000000	100.115014
335.000000	100.101353
334.000000	100.098198
333.000000	100.124129
332.000000	100.093515
331.000000	100.071727
330.000000	100.105896
329.000000	100.104345
328.000000	100.079756
327.000000	100.095528
326.000000	100.121947
325.000000	100.075446
324.000000	100.060537
323.000000	100.063822
322.000000	100.098871
321.000000	100.088816
320.000000	100.088816
319.000000	100.065103
318.000000	100.006270
317.000000	100.029682
316.000000	100.032585
315.000000	100.017743
314.000000	100.041548
313.000000	100.054989
312.000000	100.033738
311.000000	100.007618
310.000000	100.062315
309.000000	100.039833
308.000000	100.058272
307.000000	100.090199
306.000000	100.047663
305.000000	100.041253
304.000000	100.021608
303.000000	100.070104
302.000000	100.058353
301.000000	100.034789
300.000000	100.025923
299.000000	100.009497
298.000000	100.049360
297.000000	100.048426
296.000000	100.002197
295.000000	100.006107
294.000000	99.999389
293.000000	100.002447
292.000000	100.016778
291.000000	99.993995
290.000000	100.006134
289.000000	99.978147
288.000000	99.971371
287.000000	99.986471
286.000000	99.983996
285.000000	99.987184
284.000000	99.971388
283.000000	99.969267
282.000000	99.966906
281.000000	99.957862
280.000000	99.958453
279.000000	99.956690
278.000000	99.935498
277.000000	99.948461
276.000000	99.950544
275.000000	99.933293
274.000000	99.972082
273.000000	99.927145
272.000000	99.920791
271.000000	99.905494
270.000000	99.935025
269.000000	99.892018
268.000000	99.902788
267.000000	99.891335
266.000000	99.901121
265.000000	99.910566
264.000000	99.886313
263.000000	99.899482
262.000000	99.899717
261.000000	99.871105
260.000000	99.873986
259.000000	99.895527
258.000000	99.871790
257.000000	99.861528
256.000000	99.874973
255.000000	99.877482
254.000000	99.845869
253.000000	99.846069
252.000000	99.854933
251.000000	99.805897
250.000000	99.840410
249.000000	99.821423
248.000000	99.833250
247.000000	99.818016
246.000000	99.821050
245.000000	99.814013
244.000000	99.783569
243.000000	99.773364
242.000000	99.777093
241.000000	99.791656
240.000000	99.752987
239.000000	99.756763
238.000000	99.778158
237.000000	99.733698
236.000000	99.764873
235.000000	99.747872
234.000000	99.714461
233.000000	99.705470
232.000000	99.721619
231.000000	99.725939
230.000000	99.713055
229.000000	99.692120
228.000000	99.668752
227.000000	99.686014
226.000000	99.652788
225.000000	99.640867
224.000000	99.606219
223.000000	99.613448
222.000000	99.599600
221.000000	99.576346
220.000000	99.599672
219.000000	99.574013
218.000000	99.531344
217.000000	99.508684
216.000000	99.490047
215.000000	99.454771
214.000000	99.456573
213.000000	99.453174
212.000000	99.471154
211.000000	99.443518
210.000000	99.407160
209.000000	99.371078
208.000000	99.341157
207.000000	99.372245
206.000000	99.324507
205.000000	99.256576
204.000000	99.269392
203.000000	99.277547
202.000000	99.209980
201.000000	99.119987
200.000000	99.172697
199.000000	99.125508
198.000000	99.031538
197.000000	98.932856
196.000000	98.915916
195.000000	98.797909
194.000000	98.541800
193.000000	98.412756
192.000000	98.191398
191.000000	97.826157
190.000000	97.107762
