PE UV       SUBTECH     SPECTRUM    ASCII       PEDS        4.00        
   -1
C2F6_9bar.Sample.Cycle7.ASC
26/05/13
20:24:47.00
26/05/13
20:24:47.00
Jinky Agarwala

190.000000
1
Lambda 850+
860L2410213
PerkinElmer UV WinLab 7.4.0.367 / 2.02.11 Lambda 800 UV/VIS, May 23 2018 11:23:04

0
0
1
0
0
UV/VIS
1
1
10
RBeamAtt,SBeamAtt,uv/vis detector
0
0
0
0
Fix
 
0
0.2
0
0
0
 
 
 
0
 
0
319.2
0
Front
100
 
S:100 R:100
 
0
0
0
 
0
 
 
 
0
 
 
0
0
0
0
0
 
 
 
 
0
0


0
0

0


#HDR
-1
-1
#GR
nm
%T
1.0
0.0
800.000000
-1.000000
611
8
100.271259
97.126637
#DATA
800.000000	100.187058
799.000000	100.182985
798.000000	100.271259
797.000000	100.260568
796.000000	100.181812
795.000000	100.199404
794.000000	100.189103
793.000000	100.132795
792.000000	100.202268
791.000000	100.175945
790.000000	100.185915
789.000000	100.195352
788.000000	100.201299
787.000000	100.178636
786.000000	100.182372
785.000000	100.178299
784.000000	100.148485
783.000000	100.181488
782.000000	100.198492
781.000000	100.221119
780.000000	100.208173
779.000000	100.199561
778.000000	100.184113
777.000000	100.173724
776.000000	100.189605
775.000000	100.188850
774.000000	100.209414
773.000000	100.192583
772.000000	100.165759
771.000000	100.168096
770.000000	100.201363
769.000000	100.172846
768.000000	100.190193
767.000000	100.193997
766.000000	100.188223
765.000000	100.175166
764.000000	100.189635
763.000000	100.157557
762.000000	100.155975
761.000000	100.145810
760.000000	100.208877
759.000000	100.174716
758.000000	100.215458
757.000000	100.196739
756.000000	100.179276
755.000000	100.155335
754.000000	100.170570
753.000000	100.171958
752.000000	100.186089
751.000000	100.205128
750.000000	100.168849
749.000000	100.227082
748.000000	100.201121
747.000000	100.168490
746.000000	100.207169
745.000000	100.209011
744.000000	100.180054
743.000000	100.206963
742.000000	100.150374
741.000000	100.145758
740.000000	100.184655
739.000000	100.161340
738.000000	100.189639
737.000000	100.154152
736.000000	100.188079
735.000000	100.165407
734.000000	100.161340
733.000000	100.174133
732.000000	100.175206
731.000000	100.157990
730.000000	100.173446
729.000000	100.194837
728.000000	100.176546
727.000000	100.176238
726.000000	100.185623
725.000000	100.173706
724.000000	100.170605
723.000000	100.142084
722.000000	100.125237
721.000000	100.148527
720.000000	100.183033
719.000000	100.182514
718.000000	100.170341
717.000000	100.155135
716.000000	100.164177
715.000000	100.132252
714.000000	100.173392
713.000000	100.184938
712.000000	100.151204
711.000000	100.156473
710.000000	100.163761
709.000000	100.154123
708.000000	100.170557
707.000000	100.170940
706.000000	100.181379
705.000000	100.205662
704.000000	100.216236
703.000000	100.181618
702.000000	100.155379
701.000000	100.132379
700.000000	100.154199
699.000000	100.174265
698.000000	100.185525
697.000000	100.184361
696.000000	100.170640
695.000000	100.191149
694.000000	100.186039
693.000000	100.166151
692.000000	100.168979
691.000000	100.170127
690.000000	100.174166
689.000000	100.192017
688.000000	100.160993
687.000000	100.144090
686.000000	100.168247
685.000000	100.168623
684.000000	100.166410
683.000000	100.147145
682.000000	100.154253
681.000000	100.160215
680.000000	100.171276
679.000000	100.189196
678.000000	100.196305
677.000000	100.171833
676.000000	100.170084
675.000000	100.173146
674.000000	100.184966
673.000000	100.185565
672.000000	100.180225
671.000000	100.183655
670.000000	100.184907
669.000000	100.178856
668.000000	100.166296
667.000000	100.180074
666.000000	100.173124
665.000000	100.169884
664.000000	100.162465
663.000000	100.160575
662.000000	100.162532
661.000000	100.175197
660.000000	100.184126
659.000000	100.175814
658.000000	100.188713
657.000000	100.190883
656.000000	100.167440
655.000000	100.178169
654.000000	100.188701
653.000000	100.177921
652.000000	100.171408
651.000000	100.166697
650.000000	100.169760
649.000000	100.167730
648.000000	100.156017
647.000000	100.168490
646.000000	100.182076
645.000000	100.160736
644.000000	100.146971
643.000000	100.161926
642.000000	100.150733
641.000000	100.155054
640.000000	100.169587
639.000000	100.173451
638.000000	100.179571
637.000000	100.158221
636.000000	100.177474
635.000000	100.190516
634.000000	100.158173
633.000000	100.158211
632.000000	100.181563
631.000000	100.164020
630.000000	100.170828
629.000000	100.172561
628.000000	100.160123
627.000000	100.182354
626.000000	100.169563
625.000000	100.166843
624.000000	100.176288
623.000000	100.159545
622.000000	100.159223
621.000000	100.153909
620.000000	100.178093
619.000000	100.165301
618.000000	100.137860
617.000000	100.151718
616.000000	100.160589
615.000000	100.168201
614.000000	100.166523
613.000000	100.173021
612.000000	100.161033
611.000000	100.152776
610.000000	100.173899
609.000000	100.183809
608.000000	100.164960
607.000000	100.166791
606.000000	100.177281
605.000000	100.162304
604.000000	100.165857
603.000000	100.172351
602.000000	100.165118
601.000000	100.183104
600.000000	100.188799
599.000000	100.178130
598.000000	100.170102
597.000000	100.153525
596.000000	100.173920
595.000000	100.182700
594.000000	100.184102
593.000000	100.168987
592.000000	100.174824
591.000000	100.170763
590.000000	100.144248
589.000000	100.162156
588.000000	100.175177
587.000000	100.152066
586.000000	100.172952
585.000000	100.192498
584.000000	100.167667
583.000000	100.157437
582.000000	100.162157
581.000000	100.165133
580.000000	100.179544
579.000000	100.176391
578.000000	100.165572
577.000000	100.170485
576.000000	100.178955
575.000000	100.163133
574.000000	100.172055
573.000000	100.182948
572.000000	100.160924
571.000000	100.175275
570.000000	100.182144
569.000000	100.193624
568.000000	100.175337
567.000000	100.170225
566.000000	100.165221
565.000000	100.158160
564.000000	100.161751
563.000000	100.179624
562.000000	100.158509
561.000000	100.161109
560.000000	100.186881
559.000000	100.163354
558.000000	100.175858
557.000000	100.170282
556.000000	100.178441
555.000000	100.159599
554.000000	100.176234
553.000000	100.165392
552.000000	100.166226
551.000000	100.166152
550.000000	100.155753
549.000000	100.145233
548.000000	100.170516
547.000000	100.174003
546.000000	100.165761
545.000000	100.173499
544.000000	100.180338
543.000000	100.165211
542.000000	100.166747
541.000000	100.162095
540.000000	100.156257
539.000000	100.171053
538.000000	100.161665
537.000000	100.149726
536.000000	100.170056
535.000000	100.178416
534.000000	100.155206
533.000000	100.170835
532.000000	100.155911
531.000000	100.159197
530.000000	100.158685
529.000000	100.152175
528.000000	100.169838
527.000000	100.187141
526.000000	100.167108
525.000000	100.159688
524.000000	100.153188
523.000000	100.153756
522.000000	100.156524
521.000000	100.168572
520.000000	100.173227
519.000000	100.170589
518.000000	100.167225
517.000000	100.152017
516.000000	100.157036
515.000000	100.178027
514.000000	100.169533
513.000000	100.156593
512.000000	100.181141
511.000000	100.149134
510.000000	100.149809
509.000000	100.167095
508.000000	100.159686
507.000000	100.157526
506.000000	100.148780
505.000000	100.151038
504.000000	100.137801
503.000000	100.138628
502.000000	100.149515
501.000000	100.156768
500.000000	100.122404
499.000000	100.153284
498.000000	100.184526
497.000000	100.157049
496.000000	100.176333
495.000000	100.170169
494.000000	100.162061
493.000000	100.160937
492.000000	100.149784
491.000000	100.162738
490.000000	100.139087
489.000000	100.153212
488.000000	100.178205
487.000000	100.165797
486.000000	100.172202
485.000000	100.143692
484.000000	100.158882
483.000000	100.140616
482.000000	100.151895
481.000000	100.122569
480.000000	100.152089
479.000000	100.157198
478.000000	100.165501
477.000000	100.135510
476.000000	100.150693
475.000000	100.153591
474.000000	100.135624
473.000000	100.145106
472.000000	100.144833
471.000000	100.148578
470.000000	100.163833
469.000000	100.151560
468.000000	100.150948
467.000000	100.159985
466.000000	100.145686
465.000000	100.161443
464.000000	100.140044
463.000000	100.143394
462.000000	100.157110
461.000000	100.161295
460.000000	100.152450
459.000000	100.164509
458.000000	100.152353
457.000000	100.118113
456.000000	100.150957
455.000000	100.141021
454.000000	100.156857
453.000000	100.164053
452.000000	100.162418
451.000000	100.164180
450.000000	100.160647
449.000000	100.124758
448.000000	100.179826
447.000000	100.124523
446.000000	100.149943
445.000000	100.165533
444.000000	100.155460
443.000000	100.128778
442.000000	100.136291
441.000000	100.145338
440.000000	100.138549
439.000000	100.146854
438.000000	100.139564
437.000000	100.140436
436.000000	100.129945
435.000000	100.168622
434.000000	100.146246
433.000000	100.147129
432.000000	100.138394
431.000000	100.115915
430.000000	100.127101
429.000000	100.132006
428.000000	100.146887
427.000000	100.119983
426.000000	100.136643
425.000000	100.166175
424.000000	100.152438
423.000000	100.154492
422.000000	100.145495
421.000000	100.156614
420.000000	100.139033
419.000000	100.119439
418.000000	100.143310
417.000000	100.166331
416.000000	100.167307
415.000000	100.132937
414.000000	100.124874
413.000000	100.145174
412.000000	100.164791
411.000000	100.140138
410.000000	100.130614
409.000000	100.130648
408.000000	100.131287
407.000000	100.134079
406.000000	100.136141
405.000000	100.112398
404.000000	100.124018
403.000000	100.125386
402.000000	100.122068
401.000000	100.113834
400.000000	100.138050
399.000000	100.111041
398.000000	100.150594
397.000000	100.168850
396.000000	100.142412
395.000000	100.135387
394.000000	100.121387
393.000000	100.114700
392.000000	100.096614
391.000000	100.107438
390.000000	100.141545
389.000000	100.144091
388.000000	100.135370
387.000000	100.120860
386.000000	100.100340
385.000000	100.105170
384.000000	100.136170
383.000000	100.125958
382.000000	100.101216
381.000000	100.100876
380.000000	100.105825
379.000000	100.122199
378.000000	100.139541
377.000000	100.157354
376.000000	100.123790
375.000000	100.148296
374.000000	100.216987
373.000000	100.206513
372.000000	100.143925
371.000000	100.098653
370.000000	100.089847
369.000000	100.123366
368.000000	100.140141
367.000000	100.098292
366.000000	100.063015
365.000000	100.084927
364.000000	100.115775
363.000000	100.135057
362.000000	100.148202
361.000000	100.118387
360.000000	100.103633
359.000000	100.114268
358.000000	100.117903
357.000000	100.147227
356.000000	100.109054
355.000000	100.104137
354.000000	100.110300
353.000000	100.095251
352.000000	100.120731
351.000000	100.102299
350.000000	100.065751
349.000000	100.053935
348.000000	100.086550
347.000000	100.136473
346.000000	100.135173
345.000000	100.073537
344.000000	100.067980
343.000000	100.068963
342.000000	100.082261
341.000000	100.068857
340.000000	100.069225
339.000000	100.071898
338.000000	100.088476
337.000000	100.116307
336.000000	100.139202
335.000000	100.124333
334.000000	100.076793
333.000000	100.116991
332.000000	100.097265
331.000000	100.077896
330.000000	100.115336
329.000000	100.101077
328.000000	100.070316
327.000000	100.119622
326.000000	100.099665
325.000000	100.069028
324.000000	100.010170
323.000000	100.056677
322.000000	100.120923
321.000000	100.095965
320.000000	100.063977
319.000000	100.026452
318.000000	100.044736
317.000000	100.076739
316.000000	100.000603
315.000000	99.997224
314.000000	100.057974
313.000000	100.080852
312.000000	100.077633
311.000000	100.035791
310.000000	100.034364
309.000000	100.051820
308.000000	100.055849
307.000000	100.032127
306.000000	100.043297
305.000000	100.039191
304.000000	100.012746
303.000000	100.047506
302.000000	100.047898
301.000000	100.046588
300.000000	100.012779
299.000000	99.990381
298.000000	100.003900
297.000000	100.032081
296.000000	100.002929
295.000000	99.992916
294.000000	100.013568
293.000000	100.034622
292.000000	100.030249
291.000000	99.989215
290.000000	100.002576
289.000000	99.978884
288.000000	99.982429
287.000000	99.978723
286.000000	99.995445
285.000000	100.004806
284.000000	99.987544
283.000000	100.000987
282.000000	99.964066
281.000000	99.973185
280.000000	99.939410
279.000000	99.953844
278.000000	99.979820
277.000000	99.981416
276.000000	99.971615
275.000000	99.944700
274.000000	99.970097
273.000000	99.934716
272.000000	99.921164
271.000000	99.929586
270.000000	99.910923
269.000000	99.905563
268.000000	99.917208
267.000000	99.897925
266.000000	99.908957
265.000000	99.912183
264.000000	99.897135
263.000000	99.892391
262.000000	99.894118
261.000000	99.895740
260.000000	99.882196
259.000000	99.875378
258.000000	99.870671
257.000000	99.852578
256.000000	99.869877
255.000000	99.891896
254.000000	99.872324
253.000000	99.868041
252.000000	99.856050
251.000000	99.827478
250.000000	99.838426
249.000000	99.821299
248.000000	99.837462
247.000000	99.813931
246.000000	99.828723
245.000000	99.805851
244.000000	99.795304
243.000000	99.793485
242.000000	99.797313
241.000000	99.773185
240.000000	99.790242
239.000000	99.752465
238.000000	99.777177
237.000000	99.749738
236.000000	99.777596
235.000000	99.767060
234.000000	99.729360
233.000000	99.724397
232.000000	99.736155
231.000000	99.721174
230.000000	99.709754
229.000000	99.714269
228.000000	99.698030
227.000000	99.689449
226.000000	99.681302
225.000000	99.632125
224.000000	99.627808
223.000000	99.608873
222.000000	99.608525
221.000000	99.617730
220.000000	99.596681
219.000000	99.553026
218.000000	99.539109
217.000000	99.521494
216.000000	99.490298
215.000000	99.473084
214.000000	99.480779
213.000000	99.454318
212.000000	99.454053
211.000000	99.458883
210.000000	99.413970
209.000000	99.359085
208.000000	99.366532
207.000000	99.393171
206.000000	99.339642
205.000000	99.277940
204.000000	99.256752
203.000000	99.294216
202.000000	99.222487
201.000000	99.133774
200.000000	99.184675
199.000000	99.160504
198.000000	99.064593
197.000000	98.949254
196.000000	98.906971
195.000000	98.803732
194.000000	98.519667
193.000000	98.415990
192.000000	98.136309
191.000000	97.848018
190.000000	97.126637
