PE UV       SUBTECH     SPECTRUM    ASCII       PEDS        4.00        
   -1
C2F6_9bar.Sample.Cycle4.ASC
26/05/13
20:24:47.00
26/05/13
20:24:47.00
Jinky Agarwala

190.000000
1
Lambda 850+
860L2410213
PerkinElmer UV WinLab 7.4.0.367 / 2.02.11 Lambda 800 UV/VIS, May 23 2018 11:23:04

0
0
1
0
0
UV/VIS
1
1
10
RBeamAtt,SBeamAtt,uv/vis detector
0
0
0
0
Fix
 
0
0.2
0
0
0
 
 
 
0
 
0
319.2
0
Front
100
 
S:100 R:100
 
0
0
0
 
0
 
 
 
0
 
 
0
0
0
0
0
 
 
 
 
0
0


0
0

0


#HDR
-1
-1
#GR
nm
%T
1.0
0.0
800.000000
-1.000000
611
8
100.271860
97.045461
#DATA
800.000000	100.154739
799.000000	100.209437
798.000000	100.230315
797.000000	100.180067
796.000000	100.192597
795.000000	100.208993
794.000000	100.149343
793.000000	100.182797
792.000000	100.182870
791.000000	100.171367
790.000000	100.204670
789.000000	100.134816
788.000000	100.197480
787.000000	100.182128
786.000000	100.172659
785.000000	100.206360
784.000000	100.122828
783.000000	100.151131
782.000000	100.242431
781.000000	100.271860
780.000000	100.218341
779.000000	100.191141
778.000000	100.198991
777.000000	100.139264
776.000000	100.208872
775.000000	100.209103
774.000000	100.200652
773.000000	100.184586
772.000000	100.169484
771.000000	100.174013
770.000000	100.151488
769.000000	100.196316
768.000000	100.169463
767.000000	100.205409
766.000000	100.205673
765.000000	100.156508
764.000000	100.188098
763.000000	100.173477
762.000000	100.168057
761.000000	100.182949
760.000000	100.202611
759.000000	100.192419
758.000000	100.171685
757.000000	100.173963
756.000000	100.145820
755.000000	100.175371
754.000000	100.169910
753.000000	100.171407
752.000000	100.164935
751.000000	100.177902
750.000000	100.138761
749.000000	100.185283
748.000000	100.203327
747.000000	100.189454
746.000000	100.182225
745.000000	100.187701
744.000000	100.203693
743.000000	100.225748
742.000000	100.188050
741.000000	100.188745
740.000000	100.175257
739.000000	100.141325
738.000000	100.180124
737.000000	100.162452
736.000000	100.167046
735.000000	100.158322
734.000000	100.156025
733.000000	100.174355
732.000000	100.170330
731.000000	100.183158
730.000000	100.211485
729.000000	100.223908
728.000000	100.206617
727.000000	100.178125
726.000000	100.173744
725.000000	100.172818
724.000000	100.144947
723.000000	100.158859
722.000000	100.162685
721.000000	100.178878
720.000000	100.166576
719.000000	100.154152
718.000000	100.169562
717.000000	100.167710
716.000000	100.164400
715.000000	100.171883
714.000000	100.184862
713.000000	100.182821
712.000000	100.169478
711.000000	100.166838
710.000000	100.159636
709.000000	100.181223
708.000000	100.206699
707.000000	100.197049
706.000000	100.201470
705.000000	100.223415
704.000000	100.245834
703.000000	100.202952
702.000000	100.159847
701.000000	100.140981
700.000000	100.148501
699.000000	100.155933
698.000000	100.178144
697.000000	100.201253
696.000000	100.202194
695.000000	100.196968
694.000000	100.196897
693.000000	100.187087
692.000000	100.171331
691.000000	100.175615
690.000000	100.180214
689.000000	100.189888
688.000000	100.170179
687.000000	100.158544
686.000000	100.172731
685.000000	100.163915
684.000000	100.175717
683.000000	100.184492
682.000000	100.178149
681.000000	100.164591
680.000000	100.180704
679.000000	100.209632
678.000000	100.185187
677.000000	100.159591
676.000000	100.174465
675.000000	100.175281
674.000000	100.157210
673.000000	100.165109
672.000000	100.188657
671.000000	100.190627
670.000000	100.172984
669.000000	100.165358
668.000000	100.163258
667.000000	100.189641
666.000000	100.204529
665.000000	100.195215
664.000000	100.158299
663.000000	100.158660
662.000000	100.175260
661.000000	100.182521
660.000000	100.192240
659.000000	100.186633
658.000000	100.202015
657.000000	100.190432
656.000000	100.157066
655.000000	100.160916
654.000000	100.176069
653.000000	100.190670
652.000000	100.197701
651.000000	100.191301
650.000000	100.171679
649.000000	100.149896
648.000000	100.153082
647.000000	100.177525
646.000000	100.172024
645.000000	100.174178
644.000000	100.171711
643.000000	100.175372
642.000000	100.148473
641.000000	100.140136
640.000000	100.181684
639.000000	100.182270
638.000000	100.181607
637.000000	100.175525
636.000000	100.155191
635.000000	100.165514
634.000000	100.175597
633.000000	100.189446
632.000000	100.196165
631.000000	100.184508
630.000000	100.172073
629.000000	100.181959
628.000000	100.167144
627.000000	100.176011
626.000000	100.160275
625.000000	100.145775
624.000000	100.168924
623.000000	100.168837
622.000000	100.163642
621.000000	100.170342
620.000000	100.196118
619.000000	100.184461
618.000000	100.155432
617.000000	100.156253
616.000000	100.170456
615.000000	100.177842
614.000000	100.165389
613.000000	100.163150
612.000000	100.180325
611.000000	100.182060
610.000000	100.170153
609.000000	100.180744
608.000000	100.164846
607.000000	100.168494
606.000000	100.172851
605.000000	100.154921
604.000000	100.181648
603.000000	100.172010
602.000000	100.164322
601.000000	100.178330
600.000000	100.173341
599.000000	100.163011
598.000000	100.164530
597.000000	100.166035
596.000000	100.179380
595.000000	100.179969
594.000000	100.179892
593.000000	100.173881
592.000000	100.168906
591.000000	100.167120
590.000000	100.139239
589.000000	100.159195
588.000000	100.183834
587.000000	100.174050
586.000000	100.175573
585.000000	100.187826
584.000000	100.186588
583.000000	100.193347
582.000000	100.187929
581.000000	100.159545
580.000000	100.168935
579.000000	100.175250
578.000000	100.180977
577.000000	100.171854
576.000000	100.157955
575.000000	100.166216
574.000000	100.157098
573.000000	100.178722
572.000000	100.166978
571.000000	100.190700
570.000000	100.186943
569.000000	100.200025
568.000000	100.177509
567.000000	100.176741
566.000000	100.172082
565.000000	100.173370
564.000000	100.183142
563.000000	100.186260
562.000000	100.162969
561.000000	100.154592
560.000000	100.176817
559.000000	100.190008
558.000000	100.171510
557.000000	100.160669
556.000000	100.157953
555.000000	100.167842
554.000000	100.179670
553.000000	100.171691
552.000000	100.174130
551.000000	100.180361
550.000000	100.173288
549.000000	100.156008
548.000000	100.172236
547.000000	100.182376
546.000000	100.174479
545.000000	100.160647
544.000000	100.166448
543.000000	100.169689
542.000000	100.167091
541.000000	100.165082
540.000000	100.153500
539.000000	100.171512
538.000000	100.167990
537.000000	100.155591
536.000000	100.183288
535.000000	100.178532
534.000000	100.157854
533.000000	100.179590
532.000000	100.161903
531.000000	100.180638
530.000000	100.180828
529.000000	100.149290
528.000000	100.175033
527.000000	100.182174
526.000000	100.177508
525.000000	100.165469
524.000000	100.176443
523.000000	100.167534
522.000000	100.167414
521.000000	100.167992
520.000000	100.152458
519.000000	100.164783
518.000000	100.164901
517.000000	100.168185
516.000000	100.173799
515.000000	100.186416
514.000000	100.151694
513.000000	100.161611
512.000000	100.158250
511.000000	100.173912
510.000000	100.172029
509.000000	100.162063
508.000000	100.155706
507.000000	100.162679
506.000000	100.168696
505.000000	100.158303
504.000000	100.146355
503.000000	100.160307
502.000000	100.152678
501.000000	100.164267
500.000000	100.163518
499.000000	100.149068
498.000000	100.159353
497.000000	100.147219
496.000000	100.194821
495.000000	100.165491
494.000000	100.174338
493.000000	100.161287
492.000000	100.143942
491.000000	100.170799
490.000000	100.155320
489.000000	100.179954
488.000000	100.163374
487.000000	100.157858
486.000000	100.146168
485.000000	100.149294
484.000000	100.177910
483.000000	100.151352
482.000000	100.151662
481.000000	100.144727
480.000000	100.150689
479.000000	100.164678
478.000000	100.181525
477.000000	100.157627
476.000000	100.148352
475.000000	100.142930
474.000000	100.150862
473.000000	100.165165
472.000000	100.151054
471.000000	100.142001
470.000000	100.135861
469.000000	100.140860
468.000000	100.149066
467.000000	100.163282
466.000000	100.140975
465.000000	100.162857
464.000000	100.160555
463.000000	100.151059
462.000000	100.143782
461.000000	100.160233
460.000000	100.143719
459.000000	100.155776
458.000000	100.150937
457.000000	100.123895
456.000000	100.152373
455.000000	100.141611
454.000000	100.161814
453.000000	100.169600
452.000000	100.171152
451.000000	100.169137
450.000000	100.165958
449.000000	100.152259
448.000000	100.190453
447.000000	100.142228
446.000000	100.158798
445.000000	100.165769
444.000000	100.158883
443.000000	100.128306
442.000000	100.132866
441.000000	100.177478
440.000000	100.182052
439.000000	100.153593
438.000000	100.164875
437.000000	100.143512
436.000000	100.170419
435.000000	100.181055
434.000000	100.155838
433.000000	100.144286
432.000000	100.120739
431.000000	100.128360
430.000000	100.138602
429.000000	100.121450
428.000000	100.142734
427.000000	100.127341
426.000000	100.130351
425.000000	100.155841
424.000000	100.145785
423.000000	100.145223
422.000000	100.132776
421.000000	100.158755
420.000000	100.152592
419.000000	100.126220
418.000000	100.142596
417.000000	100.156448
416.000000	100.133489
415.000000	100.143896
414.000000	100.140602
413.000000	100.126342
412.000000	100.140585
411.000000	100.148964
410.000000	100.130614
409.000000	100.143653
408.000000	100.126036
407.000000	100.138138
406.000000	100.128976
405.000000	100.124223
404.000000	100.134652
403.000000	100.120605
402.000000	100.126013
401.000000	100.124835
400.000000	100.101444
399.000000	100.113793
398.000000	100.148080
397.000000	100.159748
396.000000	100.151994
395.000000	100.156473
394.000000	100.153262
393.000000	100.147659
392.000000	100.113635
391.000000	100.135496
390.000000	100.142145
389.000000	100.138812
388.000000	100.148331
387.000000	100.124701
386.000000	100.133346
385.000000	100.142267
384.000000	100.133888
383.000000	100.128000
382.000000	100.108540
381.000000	100.118770
380.000000	100.128167
379.000000	100.119685
378.000000	100.105489
377.000000	100.089032
376.000000	100.095911
375.000000	100.159869
374.000000	100.156886
373.000000	100.115992
372.000000	100.094514
371.000000	100.096259
370.000000	100.110811
369.000000	100.136434
368.000000	100.154419
367.000000	100.107893
366.000000	100.063255
365.000000	100.097901
364.000000	100.129481
363.000000	100.126639
362.000000	100.113798
361.000000	100.099498
360.000000	100.130595
359.000000	100.129199
358.000000	100.108871
357.000000	100.123372
356.000000	100.104113
355.000000	100.114502
354.000000	100.111988
353.000000	100.103088
352.000000	100.112529
351.000000	100.086375
350.000000	100.090482
349.000000	100.111369
348.000000	100.137249
347.000000	100.155072
346.000000	100.144233
345.000000	100.080782
344.000000	100.066893
343.000000	100.093963
342.000000	100.072839
341.000000	100.077554
340.000000	100.068621
339.000000	100.065494
338.000000	100.091135
337.000000	100.123924
336.000000	100.121666
335.000000	100.131469
334.000000	100.089128
333.000000	100.124371
332.000000	100.098475
331.000000	100.089024
330.000000	100.117635
329.000000	100.097082
328.000000	100.084476
327.000000	100.085237
326.000000	100.055221
325.000000	100.066727
324.000000	100.035353
323.000000	100.033667
322.000000	100.076213
321.000000	100.058403
320.000000	100.078880
319.000000	100.069330
318.000000	100.036054
317.000000	100.068655
316.000000	100.057204
315.000000	100.024140
314.000000	100.039978
313.000000	100.043024
312.000000	100.065420
311.000000	99.998549
310.000000	100.024563
309.000000	100.047824
308.000000	100.057909
307.000000	100.064861
306.000000	100.040265
305.000000	100.021112
304.000000	99.999757
303.000000	100.048721
302.000000	100.070754
301.000000	100.052549
300.000000	100.050385
299.000000	100.016681
298.000000	100.054113
297.000000	100.053793
296.000000	100.020259
295.000000	100.015390
294.000000	100.000000
293.000000	100.005995
292.000000	100.014084
291.000000	99.999020
290.000000	100.012145
289.000000	99.984900
288.000000	99.974688
287.000000	99.981552
286.000000	99.989782
285.000000	99.984226
284.000000	99.992230
283.000000	99.990249
282.000000	99.963572
281.000000	99.962805
280.000000	99.956227
279.000000	99.976489
278.000000	99.941812
277.000000	99.938425
276.000000	99.954138
275.000000	99.909983
274.000000	99.970221
273.000000	99.901949
272.000000	99.924268
271.000000	99.926109
270.000000	99.927198
269.000000	99.899971
268.000000	99.911117
267.000000	99.894071
266.000000	99.923136
265.000000	99.929970
264.000000	99.885318
263.000000	99.865022
262.000000	99.914274
261.000000	99.903205
260.000000	99.871871
259.000000	99.867791
258.000000	99.878505
257.000000	99.863641
256.000000	99.853720
255.000000	99.872636
254.000000	99.856426
253.000000	99.840358
252.000000	99.831851
251.000000	99.826982
250.000000	99.848470
249.000000	99.831708
248.000000	99.844399
247.000000	99.791152
246.000000	99.814739
245.000000	99.826997
244.000000	99.780233
243.000000	99.809779
242.000000	99.779066
241.000000	99.787715
240.000000	99.773151
239.000000	99.741906
238.000000	99.758047
237.000000	99.740432
236.000000	99.773926
235.000000	99.747628
234.000000	99.721910
233.000000	99.712186
232.000000	99.731025
231.000000	99.701625
230.000000	99.696916
229.000000	99.691386
228.000000	99.669855
227.000000	99.664296
226.000000	99.652051
225.000000	99.614273
224.000000	99.607946
223.000000	99.604545
222.000000	99.615343
221.000000	99.600829
220.000000	99.563912
219.000000	99.521670
218.000000	99.514562
217.000000	99.502028
216.000000	99.468636
215.000000	99.440878
214.000000	99.442379
213.000000	99.422908
212.000000	99.449076
211.000000	99.425847
210.000000	99.388016
209.000000	99.346576
208.000000	99.335720
207.000000	99.354570
206.000000	99.315112
205.000000	99.226561
204.000000	99.259253
203.000000	99.256512
202.000000	99.187097
201.000000	99.115435
200.000000	99.134878
199.000000	99.128211
198.000000	99.035602
197.000000	98.933398
196.000000	98.889217
195.000000	98.757148
194.000000	98.545579
193.000000	98.387286
192.000000	98.125638
191.000000	97.766705
190.000000	97.045461
