PE UV       SUBTECH     SPECTRUM    ASCII       PEDS        4.00        
   -1
C2F6_9bar.Sample.Cycle9.ASC
26/05/13
20:24:47.00
26/05/13
20:24:47.00
Jinky Agarwala

190.000000
1
Lambda 850+
860L2410213
PerkinElmer UV WinLab 7.4.0.367 / 2.02.11 Lambda 800 UV/VIS, May 23 2018 11:23:04

0
0
1
0
0
UV/VIS
1
1
10
RBeamAtt,SBeamAtt,uv/vis detector
0
0
0
0
Fix
 
0
0.2
0
0
0
 
 
 
0
 
0
319.2
0
Front
100
 
S:100 R:100
 
0
0
0
 
0
 
 
 
0
 
 
0
0
0
0
0
 
 
 
 
0
0


0
0

0


#HDR
-1
-1
#GR
nm
%T
1.0
0.0
800.000000
-1.000000
611
8
100.235187
97.162539
#DATA
800.000000	100.166927
799.000000	100.187993
798.000000	100.220296
797.000000	100.235187
796.000000	100.198370
795.000000	100.216075
794.000000	100.142481
793.000000	100.166457
792.000000	100.196165
791.000000	100.164390
790.000000	100.207287
789.000000	100.164048
788.000000	100.197043
787.000000	100.136623
786.000000	100.162945
785.000000	100.160175
784.000000	100.166828
783.000000	100.140320
782.000000	100.201771
781.000000	100.234460
780.000000	100.193085
779.000000	100.219353
778.000000	100.208290
777.000000	100.187289
776.000000	100.209091
775.000000	100.173961
774.000000	100.213685
773.000000	100.215698
772.000000	100.177481
771.000000	100.173684
770.000000	100.187004
769.000000	100.187543
768.000000	100.184490
767.000000	100.199484
766.000000	100.204137
765.000000	100.171654
764.000000	100.179643
763.000000	100.157667
762.000000	100.151581
761.000000	100.175148
760.000000	100.218331
759.000000	100.173177
758.000000	100.167835
757.000000	100.217096
756.000000	100.201616
755.000000	100.201462
754.000000	100.147776
753.000000	100.177576
752.000000	100.145544
751.000000	100.156960
750.000000	100.153970
749.000000	100.172269
748.000000	100.163831
747.000000	100.163524
746.000000	100.171188
745.000000	100.170146
744.000000	100.194635
743.000000	100.198345
742.000000	100.182636
741.000000	100.147195
740.000000	100.192174
739.000000	100.159018
738.000000	100.162200
737.000000	100.169202
736.000000	100.180330
735.000000	100.175925
734.000000	100.143069
733.000000	100.147880
732.000000	100.162240
731.000000	100.191363
730.000000	100.182097
729.000000	100.174533
728.000000	100.155906
727.000000	100.188779
726.000000	100.184735
725.000000	100.190477
724.000000	100.180601
723.000000	100.163969
722.000000	100.132237
721.000000	100.156198
720.000000	100.187259
719.000000	100.193080
718.000000	100.189923
717.000000	100.179506
716.000000	100.156943
715.000000	100.152847
714.000000	100.176955
713.000000	100.188614
712.000000	100.176275
711.000000	100.177091
710.000000	100.178922
709.000000	100.181781
708.000000	100.165426
707.000000	100.192474
706.000000	100.208837
705.000000	100.178307
704.000000	100.208417
703.000000	100.194128
702.000000	100.175598
701.000000	100.147460
700.000000	100.131516
699.000000	100.153809
698.000000	100.181835
697.000000	100.207182
696.000000	100.194473
695.000000	100.191484
694.000000	100.184360
693.000000	100.176339
692.000000	100.163716
691.000000	100.162511
690.000000	100.165766
689.000000	100.175324
688.000000	100.159984
687.000000	100.156415
686.000000	100.173627
685.000000	100.168623
684.000000	100.174035
683.000000	100.158584
682.000000	100.171642
681.000000	100.165152
680.000000	100.180368
679.000000	100.179652
678.000000	100.181930
677.000000	100.179020
676.000000	100.173454
675.000000	100.171461
674.000000	100.159682
673.000000	100.163761
672.000000	100.188207
671.000000	100.201424
670.000000	100.180745
669.000000	100.167945
668.000000	100.168434
667.000000	100.185814
666.000000	100.192485
665.000000	100.189023
664.000000	100.174400
663.000000	100.157084
662.000000	100.164447
661.000000	100.176099
660.000000	100.178041
659.000000	100.184379
658.000000	100.176087
657.000000	100.170137
656.000000	100.184015
655.000000	100.170276
654.000000	100.176858
653.000000	100.189203
652.000000	100.178405
651.000000	100.185319
650.000000	100.180031
649.000000	100.164569
648.000000	100.168435
647.000000	100.175718
646.000000	100.177784
645.000000	100.170789
644.000000	100.163351
643.000000	100.167124
642.000000	100.149038
641.000000	100.155280
640.000000	100.176596
639.000000	100.170511
638.000000	100.174935
637.000000	100.171566
636.000000	100.172271
635.000000	100.184747
634.000000	100.170053
633.000000	100.174961
632.000000	100.191071
631.000000	100.179075
630.000000	100.165280
629.000000	100.181393
628.000000	100.173259
627.000000	100.170121
626.000000	100.153026
625.000000	100.137053
624.000000	100.150797
623.000000	100.153200
622.000000	100.141091
621.000000	100.171023
620.000000	100.180701
619.000000	100.172103
618.000000	100.158947
617.000000	100.169180
616.000000	100.171249
615.000000	100.161736
614.000000	100.158129
613.000000	100.153960
612.000000	100.171246
611.000000	100.193070
610.000000	100.177305
609.000000	100.177792
608.000000	100.157807
607.000000	100.149646
606.000000	100.156838
605.000000	100.159578
604.000000	100.173468
603.000000	100.175191
602.000000	100.186368
601.000000	100.186059
600.000000	100.178456
599.000000	100.163124
598.000000	100.174991
597.000000	100.176270
596.000000	100.178015
595.000000	100.176215
594.000000	100.173861
593.000000	100.156356
592.000000	100.154906
591.000000	100.180212
590.000000	100.184437
589.000000	100.177529
588.000000	100.170393
587.000000	100.151155
586.000000	100.150735
585.000000	100.186116
584.000000	100.169035
583.000000	100.159717
582.000000	100.169341
581.000000	100.166958
580.000000	100.165285
579.000000	100.175021
578.000000	100.165230
577.000000	100.162155
576.000000	100.164688
575.000000	100.163476
574.000000	100.150248
573.000000	100.169472
572.000000	100.156699
571.000000	100.179617
570.000000	100.173345
569.000000	100.202883
568.000000	100.181509
567.000000	100.189317
566.000000	100.150472
565.000000	100.150383
564.000000	100.180740
563.000000	100.180082
562.000000	100.175777
561.000000	100.145330
560.000000	100.154057
559.000000	100.169646
558.000000	100.174142
557.000000	100.154718
556.000000	100.148453
555.000000	100.165782
554.000000	100.169020
553.000000	100.171348
552.000000	100.150187
551.000000	100.173257
550.000000	100.171683
549.000000	100.157040
548.000000	100.170286
547.000000	100.168383
546.000000	100.156354
545.000000	100.163974
544.000000	100.173909
543.000000	100.166245
542.000000	100.168699
541.000000	100.158074
540.000000	100.160853
539.000000	100.173007
538.000000	100.158906
537.000000	100.145471
536.000000	100.170171
535.000000	100.181985
534.000000	100.169944
533.000000	100.178208
532.000000	100.161673
531.000000	100.156891
530.000000	100.164798
529.000000	100.154482
528.000000	100.173763
527.000000	100.175936
526.000000	100.158556
525.000000	100.150437
524.000000	100.163369
523.000000	100.156303
522.000000	100.168341
521.000000	100.170426
520.000000	100.168586
519.000000	100.161763
518.000000	100.152932
517.000000	100.158414
516.000000	100.161692
515.000000	100.172551
514.000000	100.158923
513.000000	100.149242
512.000000	100.154162
511.000000	100.143056
510.000000	100.141506
509.000000	100.162063
508.000000	100.158749
507.000000	100.156355
506.000000	100.162253
505.000000	100.162756
504.000000	100.154675
503.000000	100.164760
502.000000	100.138735
501.000000	100.148215
500.000000	100.165978
499.000000	100.150122
498.000000	100.157714
497.000000	100.149676
496.000000	100.153750
495.000000	100.162099
494.000000	100.157968
493.000000	100.128679
492.000000	100.130856
491.000000	100.143462
490.000000	100.151583
489.000000	100.163138
488.000000	100.162206
487.000000	100.166381
486.000000	100.163913
485.000000	100.137738
484.000000	100.153045
483.000000	100.130114
482.000000	100.151429
481.000000	100.155573
480.000000	100.138083
479.000000	100.156847
478.000000	100.169127
477.000000	100.137733
476.000000	100.143902
475.000000	100.153474
474.000000	100.146642
473.000000	100.148625
472.000000	100.142603
471.000000	100.155508
470.000000	100.160777
469.000000	100.156734
468.000000	100.141183
467.000000	100.139031
466.000000	100.147570
465.000000	100.156140
464.000000	100.121183
463.000000	100.152356
462.000000	100.137767
461.000000	100.160941
460.000000	100.164250
459.000000	100.142795
458.000000	100.126863
457.000000	100.104898
456.000000	100.140925
455.000000	100.138660
454.000000	100.162641
453.000000	100.170190
452.000000	100.150850
451.000000	100.156980
450.000000	100.163362
449.000000	100.144233
448.000000	100.179944
447.000000	100.158871
446.000000	100.155847
445.000000	100.136842
444.000000	100.164195
443.000000	100.153448
442.000000	100.147275
441.000000	100.136240
440.000000	100.168694
439.000000	100.145671
438.000000	100.144886
437.000000	100.157709
436.000000	100.143910
435.000000	100.170990
434.000000	100.138786
433.000000	100.131492
432.000000	100.106639
431.000000	100.115085
430.000000	100.134808
429.000000	100.133429
428.000000	100.133361
427.000000	100.121289
426.000000	100.143647
425.000000	100.179835
424.000000	100.162656
423.000000	100.150927
422.000000	100.134678
421.000000	100.132831
420.000000	100.126783
419.000000	100.113847
418.000000	100.154618
417.000000	100.160735
416.000000	100.143849
415.000000	100.138178
414.000000	100.128091
413.000000	100.141837
412.000000	100.146070
411.000000	100.134890
410.000000	100.132284
409.000000	100.123012
408.000000	100.130093
407.000000	100.127035
406.000000	100.137455
405.000000	100.118251
404.000000	100.092237
403.000000	100.116063
402.000000	100.140480
401.000000	100.119215
400.000000	100.140203
399.000000	100.143947
398.000000	100.136229
397.000000	100.148372
396.000000	100.129835
395.000000	100.147727
394.000000	100.140440
393.000000	100.111104
392.000000	100.103926
391.000000	100.130340
390.000000	100.154980
389.000000	100.155849
388.000000	100.157092
387.000000	100.105738
386.000000	100.114743
385.000000	100.147430
384.000000	100.124642
383.000000	100.094739
382.000000	100.085967
381.000000	100.086946
380.000000	100.092011
379.000000	100.113222
378.000000	100.139541
377.000000	100.155807
376.000000	100.165252
375.000000	100.145791
374.000000	100.197869
373.000000	100.188457
372.000000	100.135670
371.000000	100.129423
370.000000	100.107696
369.000000	100.118091
368.000000	100.142901
367.000000	100.122775
366.000000	100.071897
365.000000	100.082765
364.000000	100.115415
363.000000	100.113891
362.000000	100.099483
361.000000	100.101904
360.000000	100.116633
359.000000	100.124383
358.000000	100.109594
357.000000	100.112168
356.000000	100.105559
355.000000	100.112935
354.000000	100.104634
353.000000	100.102968
352.000000	100.111685
351.000000	100.100249
350.000000	100.104839
349.000000	100.066483
348.000000	100.047681
347.000000	100.095169
346.000000	100.137952
345.000000	100.097567
344.000000	100.075828
343.000000	100.075847
342.000000	100.072960
341.000000	100.076346
340.000000	100.089401
339.000000	100.095944
338.000000	100.102013
337.000000	100.143873
336.000000	100.145129
335.000000	100.115262
334.000000	100.123353
333.000000	100.122194
332.000000	100.076578
331.000000	100.087814
330.000000	100.125018
329.000000	100.122382
328.000000	100.063780
327.000000	100.068770
326.000000	100.042143
325.000000	100.050620
324.000000	100.069375
323.000000	100.082836
322.000000	100.084937
321.000000	100.072216
320.000000	100.082515
319.000000	100.053507
318.000000	100.006873
317.000000	100.043558
316.000000	100.019671
315.000000	99.982016
314.000000	100.028866
313.000000	100.038311
312.000000	100.039179
311.000000	99.995768
310.000000	100.018755
309.000000	100.044555
308.000000	100.041917
307.000000	100.060739
306.000000	100.054576
305.000000	100.043559
304.000000	100.047221
303.000000	100.040702
302.000000	100.005714
301.000000	100.016908
300.000000	100.016673
299.000000	100.003653
298.000000	100.019378
297.000000	100.027933
296.000000	99.989749
295.000000	100.022475
294.000000	100.037038
293.000000	100.006484
292.000000	100.026453
291.000000	100.010417
290.000000	100.006011
289.000000	100.005033
288.000000	100.011058
287.000000	100.000369
286.000000	99.988551
285.000000	100.052004
284.000000	100.026763
283.000000	100.011355
282.000000	99.989627
281.000000	99.960086
280.000000	99.951528
279.000000	99.964733
278.000000	99.948745
277.000000	99.965310
276.000000	99.963187
275.000000	99.954000
274.000000	99.960171
273.000000	99.936577
272.000000	99.932462
271.000000	99.909343
270.000000	99.925707
269.000000	99.900468
268.000000	99.910744
267.000000	99.917942
266.000000	99.927986
265.000000	99.898874
264.000000	99.875243
263.000000	99.875970
262.000000	99.918132
261.000000	99.905942
260.000000	99.897621
259.000000	99.872891
258.000000	99.868184
257.000000	99.853946
256.000000	99.869256
255.000000	99.863689
254.000000	99.864623
253.000000	99.822607
252.000000	99.861262
251.000000	99.840129
250.000000	99.861614
249.000000	99.812748
248.000000	99.835232
247.000000	99.808112
246.000000	99.851742
245.000000	99.843568
244.000000	99.813958
243.000000	99.806940
242.000000	99.790285
241.000000	99.806186
240.000000	99.778069
239.000000	99.769164
238.000000	99.782696
237.000000	99.759410
236.000000	99.808180
235.000000	99.787958
234.000000	99.732536
233.000000	99.750040
232.000000	99.741652
231.000000	99.734859
230.000000	99.711343
229.000000	99.721733
228.000000	99.706360
227.000000	99.696443
226.000000	99.666554
225.000000	99.653794
224.000000	99.635950
223.000000	99.635954
222.000000	99.624145
221.000000	99.628293
220.000000	99.579362
219.000000	99.586505
218.000000	99.540362
217.000000	99.510694
216.000000	99.510198
215.000000	99.472074
214.000000	99.496114
213.000000	99.465001
212.000000	99.461710
211.000000	99.438524
210.000000	99.409473
209.000000	99.344255
208.000000	99.357340
207.000000	99.392131
206.000000	99.327638
205.000000	99.290654
204.000000	99.262282
203.000000	99.286940
202.000000	99.240714
201.000000	99.146625
200.000000	99.198000
199.000000	99.178880
198.000000	99.074888
197.000000	98.981645
196.000000	98.944919
195.000000	98.789377
194.000000	98.578238
193.000000	98.415182
192.000000	98.182461
191.000000	97.849351
190.000000	97.162539
