PE UV       SUBTECH     SPECTRUM    ASCII       PEDS        4.00        
   -1
C2F6_3bar.Sample.Cycle1.ASC
26/05/13
18:26:53.00
26/05/13
18:26:53.00
Jinky Agarwala

190.000000
1
Lambda 850+
860L2410213
PerkinElmer UV WinLab 7.4.0.367 / 2.02.11 Lambda 800 UV/VIS, May 23 2018 11:23:04

0
0
1
0
0
UV/VIS
1
1
10
RBeamAtt,SBeamAtt,uv/vis detector
0
0
0
0
Fix
 
0
0.2
0
0
0
 
 
 
0
 
0
319.2
0
Front
100
 
S:100 R:100
 
0
0
0
 
0
 
 
 
0
 
 
0
0
0
0
0
 
 
 
 
0
0


0
0

0


#HDR
-1
-1
#GR
nm
%T
1.0
0.0
800.000000
-1.000000
611
8
100.071266
99.334490
#DATA
800.000000	99.957561
799.000000	99.989441
798.000000	100.015245
797.000000	100.044881
796.000000	100.011438
795.000000	100.015691
794.000000	99.950981
793.000000	99.975925
792.000000	99.995859
791.000000	100.006432
790.000000	100.015375
789.000000	100.034140
788.000000	99.993235
787.000000	99.966062
786.000000	100.030886
785.000000	100.004149
784.000000	100.007533
783.000000	99.987442
782.000000	100.042300
781.000000	100.039259
780.000000	99.973432
779.000000	100.008748
778.000000	99.995843
777.000000	99.977464
776.000000	100.071266
775.000000	100.017079
774.000000	100.042058
773.000000	100.015117
772.000000	99.978746
771.000000	99.966030
770.000000	100.015894
769.000000	100.062185
768.000000	99.997148
767.000000	100.058375
766.000000	99.997146
765.000000	99.974428
764.000000	100.001318
763.000000	99.991326
762.000000	99.986599
761.000000	99.996374
760.000000	100.046503
759.000000	100.011435
758.000000	100.006599
757.000000	100.028058
756.000000	100.010345
755.000000	100.039191
754.000000	99.989869
753.000000	100.016304
752.000000	100.012781
751.000000	100.017746
750.000000	99.974099
749.000000	100.038821
748.000000	100.011363
747.000000	99.969105
746.000000	99.993930
745.000000	99.981230
744.000000	100.027616
743.000000	100.047404
742.000000	99.993260
741.000000	99.985745
740.000000	99.989938
739.000000	99.969147
738.000000	99.992476
737.000000	100.002103
736.000000	99.973986
735.000000	99.960586
734.000000	99.924258
733.000000	99.965328
732.000000	99.990026
731.000000	100.017739
730.000000	100.015969
729.000000	100.022524
728.000000	100.008655
727.000000	100.003218
726.000000	99.991674
725.000000	100.017770
724.000000	100.024324
723.000000	99.995223
722.000000	99.990332
721.000000	100.000778
720.000000	100.012788
719.000000	100.006673
718.000000	100.009457
717.000000	100.012130
716.000000	100.002671
715.000000	99.981075
714.000000	99.992873
713.000000	100.020053
712.000000	99.987297
711.000000	99.963111
710.000000	99.987180
709.000000	100.020743
708.000000	100.023648
707.000000	100.018745
706.000000	100.025114
705.000000	100.037850
704.000000	100.047357
703.000000	100.016419
702.000000	99.986931
701.000000	99.969838
700.000000	99.954187
699.000000	99.985916
698.000000	100.009058
697.000000	100.008278
696.000000	100.025176
695.000000	100.013094
694.000000	100.007052
693.000000	100.000784
692.000000	99.994961
691.000000	100.011984
690.000000	100.009632
689.000000	100.008962
688.000000	100.006274
687.000000	100.000336
686.000000	100.014123
685.000000	99.999215
684.000000	99.989683
683.000000	99.976336
682.000000	99.986089
681.000000	99.985078
680.000000	100.002806
679.000000	100.018863
678.000000	100.028076
677.000000	100.009659
676.000000	100.004831
675.000000	99.995056
674.000000	99.996741
673.000000	100.005957
672.000000	100.013267
671.000000	100.003261
670.000000	99.999325
669.000000	100.006862
668.000000	100.006076
667.000000	100.009679
666.000000	99.995723
665.000000	100.004053
664.000000	100.018465
663.000000	100.002815
662.000000	99.994481
661.000000	100.007887
660.000000	100.003944
659.000000	99.993576
658.000000	100.017248
657.000000	100.019054
656.000000	100.013192
655.000000	100.004849
654.000000	100.000113
653.000000	100.000113
652.000000	100.004852
651.000000	100.008803
650.000000	100.013319
649.000000	99.996952
648.000000	99.980470
647.000000	100.003953
646.000000	100.014006
645.000000	100.004179
644.000000	100.002598
643.000000	100.008588
642.000000	99.985085
641.000000	99.977736
640.000000	100.003505
639.000000	100.011307
638.000000	99.991519
637.000000	99.986315
636.000000	99.993439
635.000000	100.000000
634.000000	100.003507
633.000000	100.011543
632.000000	100.011659
631.000000	100.008490
630.000000	99.997623
629.000000	99.998528
628.000000	99.985165
627.000000	99.997508
626.000000	99.994337
625.000000	99.989579
624.000000	100.008044
623.000000	100.000340
622.000000	99.982208
621.000000	99.974046
620.000000	99.994105
619.000000	99.985375
618.000000	99.973131
617.000000	99.970632
616.000000	99.980947
615.000000	99.992061
614.000000	99.991946
613.000000	99.987860
612.000000	100.002724
611.000000	99.999432
610.000000	99.991827
609.000000	100.005790
608.000000	99.996140
607.000000	99.978427
606.000000	99.991596
605.000000	99.993980
604.000000	99.994206
603.000000	99.986253
602.000000	100.004205
601.000000	100.022050
600.000000	100.005456
599.000000	99.994203
598.000000	99.991472
597.000000	100.010121
596.000000	100.013763
595.000000	100.001934
594.000000	100.011833
593.000000	99.993514
592.000000	99.989415
591.000000	99.999658
590.000000	99.989298
589.000000	99.990435
588.000000	99.995102
587.000000	99.990774
586.000000	100.000342
585.000000	100.008776
584.000000	99.998974
583.000000	100.006042
582.000000	100.004333
581.000000	100.002965
580.000000	100.008783
579.000000	100.016544
578.000000	100.008672
577.000000	100.010384
576.000000	99.986761
575.000000	100.007192
574.000000	99.989725
573.000000	99.983327
572.000000	99.990635
571.000000	100.025594
570.000000	100.017255
569.000000	100.017717
568.000000	100.008687
567.000000	100.000572
566.000000	99.999314
565.000000	100.013838
564.000000	100.025395
563.000000	100.008352
562.000000	100.003202
561.000000	99.987537
560.000000	99.989135
559.000000	99.993480
558.000000	99.991762
557.000000	100.002518
556.000000	99.996681
555.000000	100.006182
554.000000	100.012482
553.000000	100.020960
552.000000	100.007561
551.000000	100.009511
550.000000	99.992665
549.000000	99.992435
548.000000	100.003555
547.000000	100.009176
546.000000	99.987152
545.000000	100.004705
544.000000	100.016874
543.000000	99.990126
542.000000	99.982430
541.000000	99.993911
540.000000	99.989774
539.000000	99.997931
538.000000	99.981143
537.000000	99.985625
536.000000	100.006443
535.000000	100.014849
534.000000	100.002763
533.000000	100.007718
532.000000	100.011062
531.000000	99.999885
530.000000	99.991351
529.000000	99.984194
528.000000	100.031058
527.000000	100.024375
526.000000	100.014099
525.000000	100.014801
524.000000	100.008330
523.000000	100.004400
522.000000	100.008458
521.000000	100.000927
520.000000	100.000464
519.000000	100.010684
518.000000	99.990587
517.000000	100.009189
516.000000	100.003259
515.000000	100.013865
514.000000	99.990322
513.000000	99.987981
512.000000	100.004555
511.000000	100.014142
510.000000	100.002573
509.000000	100.002925
508.000000	99.980332
507.000000	100.005388
506.000000	99.998711
505.000000	99.987931
504.000000	99.976799
503.000000	99.984532
502.000000	99.987931
501.000000	99.995431
500.000000	100.003280
499.000000	99.999649
498.000000	100.002108
497.000000	99.982680
496.000000	100.039198
495.000000	99.981053
494.000000	100.022918
493.000000	100.007480
492.000000	99.998481
491.000000	100.005958
490.000000	99.979797
489.000000	100.017633
488.000000	99.996030
487.000000	100.018448
486.000000	99.999650
485.000000	100.004319
484.000000	99.999883
483.000000	99.993232
482.000000	100.011900
481.000000	99.979241
480.000000	99.980858
479.000000	100.009818
478.000000	100.000351
477.000000	99.998245
476.000000	99.977870
475.000000	99.987699
474.000000	99.969288
473.000000	99.991906
472.000000	99.993545
471.000000	100.008222
470.000000	99.992478
469.000000	99.968253
468.000000	99.976587
467.000000	99.982459
466.000000	99.991403
465.000000	100.006246
464.000000	100.002476
463.000000	100.000590
462.000000	100.011677
461.000000	100.022300
460.000000	99.982065
459.000000	99.994217
458.000000	99.991385
457.000000	99.969203
456.000000	100.026202
455.000000	100.011565
454.000000	100.009206
453.000000	99.990912
452.000000	100.021246
451.000000	100.006374
450.000000	100.013338
449.000000	100.003305
448.000000	100.029282
447.000000	99.988551
446.000000	100.020189
445.000000	100.034004
444.000000	100.019359
443.000000	99.981350
442.000000	99.998465
441.000000	100.006026
440.000000	100.028845
439.000000	99.996216
438.000000	100.010526
437.000000	99.995386
436.000000	99.995503
435.000000	100.010065
434.000000	99.979277
433.000000	99.986732
432.000000	99.976184
431.000000	99.983999
430.000000	99.993360
429.000000	99.989800
428.000000	99.984694
427.000000	99.980774
426.000000	99.993827
425.000000	100.018411
424.000000	100.013901
423.000000	100.004516
422.000000	99.998455
421.000000	100.000832
420.000000	99.985847
419.000000	99.981561
418.000000	100.021068
417.000000	100.002024
416.000000	99.994999
415.000000	99.973198
414.000000	99.971641
413.000000	99.978546
412.000000	99.996184
411.000000	99.980798
410.000000	99.977694
409.000000	99.976018
408.000000	99.991287
407.000000	100.020297
406.000000	100.028542
405.000000	100.021022
404.000000	99.989605
403.000000	100.015658
402.000000	100.000956
401.000000	99.983738
400.000000	99.997129
399.000000	99.987795
398.000000	100.004190
397.000000	100.011017
396.000000	100.006468
395.000000	100.009825
394.000000	99.998203
393.000000	100.004075
392.000000	99.988612
391.000000	99.994244
390.000000	100.015954
389.000000	100.000480
388.000000	99.995800
387.000000	99.986798
386.000000	99.992198
385.000000	100.011886
384.000000	100.018372
383.000000	99.976225
382.000000	99.940927
381.000000	99.971298
380.000000	99.996396
379.000000	100.008378
378.000000	100.005596
377.000000	100.012022
376.000000	99.982605
375.000000	100.006323
374.000000	100.063089
373.000000	100.048908
372.000000	99.989352
371.000000	99.982640
370.000000	99.981911
369.000000	100.031291
368.000000	100.059632
367.000000	99.980198
366.000000	99.949228
365.000000	99.980300
364.000000	100.013225
363.000000	100.027781
362.000000	100.023096
361.000000	100.003489
360.000000	100.027563
359.000000	100.023600
358.000000	99.999880
357.000000	100.018795
356.000000	100.016991
355.000000	99.997228
354.000000	99.978543
353.000000	99.974801
352.000000	99.976963
351.000000	99.989384
350.000000	99.975027
349.000000	99.960786
348.000000	99.963907
347.000000	99.988647
346.000000	100.028508
345.000000	99.977057
344.000000	99.951702
343.000000	99.980555
342.000000	99.986713
341.000000	100.003020
340.000000	100.030928
339.000000	100.019817
338.000000	100.000483
337.000000	100.006287
336.000000	100.027695
335.000000	100.044266
334.000000	100.038699
333.000000	100.039925
332.000000	100.000847
331.000000	99.960326
330.000000	100.002299
329.000000	100.014163
328.000000	99.948564
327.000000	99.995520
326.000000	99.992613
325.000000	100.003512
324.000000	99.963073
323.000000	99.966938
322.000000	100.015630
321.000000	99.963892
320.000000	99.974312
319.000000	99.977293
318.000000	99.977572
317.000000	99.983590
316.000000	99.967657
315.000000	99.910078
314.000000	99.921252
313.000000	99.973412
312.000000	100.014269
311.000000	99.957316
310.000000	99.990562
309.000000	99.993583
308.000000	99.964625
307.000000	99.995999
306.000000	99.962524
305.000000	99.960809
304.000000	99.930200
303.000000	99.973756
302.000000	99.970945
301.000000	99.983457
300.000000	99.961055
299.000000	99.936684
298.000000	99.987812
297.000000	99.983411
296.000000	99.950207
295.000000	99.965800
294.000000	99.948782
293.000000	99.987032
292.000000	99.983589
291.000000	99.957718
290.000000	99.973870
289.000000	99.960591
288.000000	99.936107
287.000000	99.970606
286.000000	99.960482
285.000000	99.998152
284.000000	100.000493
283.000000	99.984818
282.000000	99.941963
281.000000	99.929070
280.000000	99.950168
279.000000	99.950750
278.000000	99.931908
277.000000	99.977452
276.000000	99.936785
275.000000	99.919778
274.000000	99.954339
273.000000	99.936081
272.000000	99.941276
271.000000	99.930331
270.000000	99.951796
269.000000	99.947438
268.000000	99.952389
267.000000	99.922915
266.000000	99.978856
265.000000	99.952858
264.000000	99.938555
263.000000	99.954717
262.000000	99.967402
261.000000	99.938290
260.000000	99.959695
259.000000	99.937813
258.000000	99.935833
257.000000	99.928154
256.000000	99.937238
255.000000	99.950918
254.000000	99.950445
253.000000	99.934579
252.000000	99.947260
251.000000	99.917274
250.000000	99.935891
249.000000	99.937170
248.000000	99.960109
247.000000	99.951719
246.000000	99.943692
245.000000	99.944971
244.000000	99.912785
243.000000	99.932355
242.000000	99.908766
241.000000	99.930552
240.000000	99.905203
239.000000	99.924856
238.000000	99.934024
237.000000	99.887970
236.000000	99.950944
235.000000	99.922516
234.000000	99.895701
233.000000	99.922948
232.000000	99.925000
231.000000	99.929499
230.000000	99.922731
229.000000	99.933064
228.000000	99.899670
227.000000	99.915829
226.000000	99.886680
225.000000	99.888825
224.000000	99.895016
223.000000	99.924940
222.000000	99.908391
221.000000	99.917233
220.000000	99.900323
219.000000	99.903185
218.000000	99.882523
217.000000	99.882195
216.000000	99.874306
215.000000	99.871176
214.000000	99.889870
213.000000	99.894831
212.000000	99.901097
211.000000	99.892186
210.000000	99.897724
209.000000	99.865627
208.000000	99.871701
207.000000	99.887836
206.000000	99.882177
205.000000	99.867620
204.000000	99.865307
203.000000	99.848657
202.000000	99.829304
201.000000	99.866405
200.000000	99.871066
199.000000	99.861097
198.000000	99.840825
197.000000	99.838587
196.000000	99.775702
195.000000	99.745011
194.000000	99.712409
193.000000	99.674142
192.000000	99.602238
191.000000	99.521456
190.000000	99.334490
