PE UV       SUBTECH     SPECTRUM    ASCII       PEDS        4.00        
   -1
C2F6_3bar.Sample.Cycle7.ASC
26/05/13
18:26:53.00
26/05/13
18:26:53.00
Jinky Agarwala

190.000000
1
Lambda 850+
860L2410213
PerkinElmer UV WinLab 7.4.0.367 / 2.02.11 Lambda 800 UV/VIS, May 23 2018 11:23:04

0
0
1
0
0
UV/VIS
1
1
10
RBeamAtt,SBeamAtt,uv/vis detector
0
0
0
0
Fix
 
0
0.2
0
0
0
 
 
 
0
 
0
319.2
0
Front
100
 
S:100 R:100
 
0
0
0
 
0
 
 
 
0
 
 
0
0
0
0
0
 
 
 
 
0
0


0
0

0


#HDR
-1
-1
#GR
nm
%T
1.0
0.0
800.000000
-1.000000
611
8
100.083334
99.313767
#DATA
800.000000	99.988465
799.000000	99.948947
798.000000	100.058150
797.000000	100.083334
796.000000	100.056755
795.000000	100.059930
794.000000	100.026034
793.000000	99.971132
792.000000	99.969921
791.000000	99.987900
790.000000	99.991495
789.000000	100.029232
788.000000	100.023676
787.000000	100.018878
786.000000	100.008731
785.000000	99.996288
784.000000	99.972705
783.000000	99.959487
782.000000	100.026123
781.000000	100.071410
780.000000	100.082001
779.000000	99.997376
778.000000	100.018925
777.000000	99.993655
776.000000	100.042037
775.000000	100.041821
774.000000	100.050930
773.000000	100.024538
772.000000	99.998028
771.000000	100.001972
770.000000	100.001644
769.000000	99.988813
768.000000	100.011298
767.000000	100.026115
766.000000	100.006036
765.000000	99.967294
764.000000	100.014714
763.000000	99.995718
762.000000	100.014060
761.000000	100.016042
760.000000	100.026494
759.000000	100.009016
758.000000	99.994501
757.000000	100.020466
756.000000	100.018819
755.000000	100.048989
754.000000	100.014756
753.000000	100.011677
752.000000	100.023688
751.000000	100.033839
750.000000	100.022153
749.000000	100.033307
748.000000	100.022506
747.000000	100.004083
746.000000	100.023068
745.000000	99.998454
744.000000	100.021319
743.000000	100.032376
742.000000	99.988620
741.000000	99.964748
740.000000	100.022557
739.000000	100.007630
738.000000	100.014383
737.000000	99.980966
736.000000	99.985166
735.000000	100.028896
734.000000	100.019268
733.000000	99.991692
732.000000	100.006982
731.000000	100.037585
730.000000	100.024509
729.000000	100.026296
728.000000	100.025300
727.000000	100.004106
726.000000	100.006217
725.000000	100.020214
724.000000	100.024547
723.000000	100.002555
722.000000	99.988110
721.000000	100.001223
720.000000	99.985433
719.000000	99.991214
718.000000	100.024589
717.000000	99.995215
716.000000	99.970838
715.000000	99.975731
714.000000	99.992873
713.000000	100.010361
712.000000	99.994429
711.000000	100.012259
710.000000	100.014827
709.000000	100.031784
708.000000	100.008031
707.000000	100.006137
706.000000	100.009041
705.000000	100.027690
704.000000	100.045459
703.000000	100.021334
702.000000	100.005027
701.000000	99.993744
700.000000	99.985251
699.000000	99.997876
698.000000	100.003802
697.000000	100.007943
696.000000	100.015106
695.000000	100.018018
694.000000	100.017462
693.000000	100.010524
692.000000	99.998320
691.000000	99.996304
690.000000	100.020273
689.000000	100.016468
688.000000	99.987340
687.000000	99.990588
686.000000	100.020176
685.000000	100.026460
684.000000	100.018054
683.000000	100.014580
682.000000	100.017389
681.000000	100.000000
680.000000	100.010101
679.000000	100.029979
678.000000	100.038632
677.000000	100.014600
676.000000	100.023142
675.000000	100.026067
674.000000	100.026071
673.000000	100.019220
672.000000	100.018776
671.000000	100.031040
670.000000	100.025082
669.000000	100.017661
668.000000	100.005401
667.000000	100.012493
666.000000	100.026002
665.000000	100.027695
664.000000	100.022968
663.000000	100.004054
662.000000	100.006871
661.000000	100.027491
660.000000	100.008564
659.000000	99.998197
658.000000	100.013979
657.000000	100.020520
656.000000	100.015898
655.000000	100.010938
654.000000	100.013197
653.000000	100.021098
652.000000	100.027647
651.000000	100.029795
650.000000	100.018060
649.000000	99.992550
648.000000	99.989162
647.000000	100.007002
646.000000	100.016717
645.000000	100.006326
644.000000	99.998757
643.000000	99.999887
642.000000	99.986102
641.000000	100.009719
640.000000	100.030073
639.000000	100.021823
638.000000	100.016510
637.000000	100.021714
636.000000	100.023754
635.000000	100.007354
634.000000	99.983142
633.000000	100.008148
632.000000	100.020375
631.000000	100.005433
630.000000	100.012792
629.000000	100.022419
628.000000	100.017213
627.000000	100.012799
626.000000	99.993204
625.000000	99.990032
624.000000	100.000453
623.000000	99.991728
622.000000	99.990707
621.000000	99.996713
620.000000	100.009863
619.000000	99.999773
618.000000	99.977212
617.000000	99.991722
616.000000	100.015424
615.000000	100.011796
614.000000	99.995576
613.000000	99.998071
612.000000	99.995915
611.000000	100.000227
610.000000	100.009648
609.000000	100.028042
608.000000	100.016462
607.000000	100.001703
606.000000	100.011584
605.000000	100.005906
604.000000	100.006930
603.000000	100.000114
602.000000	100.014091
601.000000	100.020799
600.000000	100.010798
599.000000	99.995453
598.000000	100.006936
597.000000	100.013419
596.000000	100.011602
595.000000	100.005574
594.000000	100.016499
593.000000	100.013200
592.000000	100.015821
591.000000	100.011726
590.000000	100.010133
589.000000	100.003530
588.000000	100.007973
587.000000	99.994532
586.000000	100.009912
585.000000	100.026555
584.000000	100.007067
583.000000	100.011628
582.000000	100.015395
581.000000	100.002965
580.000000	100.000342
579.000000	100.010611
578.000000	100.016203
577.000000	100.014492
576.000000	100.007989
575.000000	100.015183
574.000000	100.004795
573.000000	100.015988
572.000000	100.010622
571.000000	100.026051
570.000000	100.018740
569.000000	100.036462
568.000000	100.014745
567.000000	100.011204
566.000000	99.990395
565.000000	99.989021
564.000000	100.004118
563.000000	100.010297
562.000000	99.998628
561.000000	100.005946
560.000000	100.026305
559.000000	100.003661
558.000000	99.995652
557.000000	100.014762
556.000000	100.015795
555.000000	100.018547
554.000000	100.017749
553.000000	99.996106
552.000000	99.999542
551.000000	100.012719
550.000000	100.003553
549.000000	99.997020
548.000000	100.014334
547.000000	100.027070
546.000000	100.010668
545.000000	99.985083
544.000000	100.004936
543.000000	99.999196
542.000000	100.010336
541.000000	100.018610
540.000000	99.996668
539.000000	100.012530
538.000000	100.005289
537.000000	99.997240
536.000000	100.003222
535.000000	100.024057
534.000000	100.018307
533.000000	100.024306
532.000000	100.017631
531.000000	100.003458
530.000000	100.005420
529.000000	100.000577
528.000000	100.023322
527.000000	100.010050
526.000000	100.018606
525.000000	100.005897
524.000000	100.000810
523.000000	100.012967
522.000000	100.013439
521.000000	99.994667
520.000000	100.011835
519.000000	100.033909
518.000000	100.009994
517.000000	100.006630
516.000000	100.017229
515.000000	100.020389
514.000000	100.008278
513.000000	100.007001
512.000000	100.013197
511.000000	100.011921
510.000000	100.032277
509.000000	100.023520
508.000000	99.999649
507.000000	100.025415
506.000000	100.000586
505.000000	99.998125
504.000000	99.991680
503.000000	100.009257
502.000000	100.005976
501.000000	100.007264
500.000000	100.014993
499.000000	99.998595
498.000000	99.997658
497.000000	100.005032
496.000000	100.027497
495.000000	100.006783
494.000000	100.032272
493.000000	100.002688
492.000000	99.996962
491.000000	100.016589
490.000000	99.993460
489.000000	100.007123
488.000000	100.036085
487.000000	100.021133
486.000000	100.034324
485.000000	100.013190
484.000000	100.032804
483.000000	99.980162
482.000000	99.991017
481.000000	99.982973
480.000000	99.991246
479.000000	100.017765
478.000000	100.017895
477.000000	100.007723
476.000000	100.006206
475.000000	100.003632
474.000000	99.997656
473.000000	99.991085
472.000000	100.006807
471.000000	100.025605
470.000000	100.013398
469.000000	99.994709
468.000000	99.993882
467.000000	100.009653
466.000000	99.980332
465.000000	99.989983
464.000000	100.005423
463.000000	100.008019
462.000000	100.006015
461.000000	100.029262
460.000000	100.016165
459.000000	100.007907
458.000000	100.005429
457.000000	99.982301
456.000000	99.995043
455.000000	99.991503
454.000000	99.993981
453.000000	100.016405
452.000000	100.028683
451.000000	100.027855
450.000000	100.003069
449.000000	100.000826
448.000000	100.036013
447.000000	100.007200
446.000000	100.024794
445.000000	100.032469
444.000000	100.022900
443.000000	99.989259
442.000000	99.982993
441.000000	99.989720
440.000000	100.011703
439.000000	100.015135
438.000000	100.007333
437.000000	100.017983
436.000000	100.018462
435.000000	100.022380
434.000000	99.980343
433.000000	99.992655
432.000000	99.995734
431.000000	100.009363
430.000000	99.993360
429.000000	99.989088
428.000000	99.980067
427.000000	99.986708
426.000000	100.001068
425.000000	100.034209
424.000000	100.035288
423.000000	100.002614
422.000000	100.016285
421.000000	100.032464
420.000000	100.009990
419.000000	100.013800
418.000000	100.010236
417.000000	100.010120
416.000000	99.996189
415.000000	100.010482
414.000000	100.012154
413.000000	100.005483
412.000000	100.023610
411.000000	100.028505
410.000000	100.015864
409.000000	100.007755
408.000000	100.001790
407.000000	100.020178
406.000000	100.018988
405.000000	99.994506
404.000000	99.994146
403.000000	100.019961
402.000000	99.987925
401.000000	99.965085
400.000000	99.994138
399.000000	100.000120
398.000000	100.009696
397.000000	100.009460
396.000000	100.001916
395.000000	100.005631
394.000000	100.010904
393.000000	100.015940
392.000000	99.990171
391.000000	100.008034
390.000000	100.023991
389.000000	99.998560
388.000000	99.998320
387.000000	100.014162
386.000000	100.011522
385.000000	100.001681
384.000000	100.000841
383.000000	99.974184
382.000000	99.976827
381.000000	100.008406
380.000000	100.014294
379.000000	99.978935
378.000000	99.966544
377.000000	99.995358
376.000000	99.940905
375.000000	99.969339
374.000000	100.046122
373.000000	100.050462
372.000000	100.028833
371.000000	100.016402
370.000000	99.999281
369.000000	100.005275
368.000000	100.028076
367.000000	99.999400
366.000000	99.967712
365.000000	100.006847
364.000000	100.031138
363.000000	100.010944
362.000000	99.989534
361.000000	100.007941
360.000000	100.005416
359.000000	99.978086
358.000000	99.996628
357.000000	100.016385
356.000000	99.993493
355.000000	100.006750
354.000000	99.988910
353.000000	99.958524
352.000000	99.990592
351.000000	100.024972
350.000000	99.989987
349.000000	99.966939
348.000000	99.980324
347.000000	100.025241
346.000000	100.062815
345.000000	100.000845
344.000000	99.992031
343.000000	99.992874
342.000000	100.005798
341.000000	100.015825
340.000000	99.995530
339.000000	99.987433
338.000000	99.990572
337.000000	100.002781
336.000000	100.019834
335.000000	100.024794
334.000000	100.006168
333.000000	100.039078
332.000000	99.978587
331.000000	99.953674
330.000000	99.998306
329.000000	100.008837
328.000000	99.983178
327.000000	100.027000
326.000000	100.038873
325.000000	100.035967
324.000000	99.931351
323.000000	99.945382
322.000000	100.014055
321.000000	99.983158
320.000000	99.979401
319.000000	99.958209
318.000000	99.985892
317.000000	100.036198
316.000000	100.018706
315.000000	99.943030
314.000000	99.943113
313.000000	100.004834
312.000000	100.019227
311.000000	99.958405
310.000000	99.960070
309.000000	99.979660
308.000000	100.001575
307.000000	100.023399
306.000000	100.002911
305.000000	99.974641
304.000000	99.959577
303.000000	99.976308
302.000000	99.970580
301.000000	99.986741
300.000000	99.980284
299.000000	99.940824
298.000000	99.991225
297.000000	99.995487
296.000000	99.956065
295.000000	99.973250
294.000000	99.982887
293.000000	99.981527
292.000000	99.999633
291.000000	99.980391
290.000000	99.976201
289.000000	99.960960
288.000000	99.940530
287.000000	99.968638
286.000000	99.983750
285.000000	99.975970
284.000000	99.964481
283.000000	99.970995
282.000000	99.951347
281.000000	99.965276
280.000000	99.963893
279.000000	99.942583
278.000000	99.935498
277.000000	99.961346
276.000000	99.951535
275.000000	99.943336
274.000000	99.958309
273.000000	99.957429
272.000000	99.947856
271.000000	99.932318
270.000000	99.937385
269.000000	99.938864
268.000000	99.945054
267.000000	99.924904
266.000000	99.957961
265.000000	99.960321
264.000000	99.923255
263.000000	99.941779
262.000000	99.965784
261.000000	99.967403
260.000000	99.949495
259.000000	99.950873
258.000000	99.965429
257.000000	99.944934
256.000000	99.942209
255.000000	99.960238
254.000000	99.921879
253.000000	99.938303
252.000000	99.941924
251.000000	99.924095
250.000000	99.943455
249.000000	99.919200
248.000000	99.935332
247.000000	99.920398
246.000000	99.960522
245.000000	99.946454
244.000000	99.929709
243.000000	99.940502
242.000000	99.922821
241.000000	99.927597
240.000000	99.913318
239.000000	99.916015
238.000000	99.917959
237.000000	99.900091
236.000000	99.922929
235.000000	99.916528
234.000000	99.910235
233.000000	99.900480
232.000000	99.922190
231.000000	99.916914
230.000000	99.921142
229.000000	99.914464
228.000000	99.915350
227.000000	99.925276
226.000000	99.911015
225.000000	99.893380
224.000000	99.877869
223.000000	99.899838
222.000000	99.918556
221.000000	99.915369
220.000000	99.918140
219.000000	99.916427
218.000000	99.881772
217.000000	99.887721
216.000000	99.872669
215.000000	99.866250
214.000000	99.874662
213.000000	99.874866
212.000000	99.914496
211.000000	99.887705
210.000000	99.867016
209.000000	99.858921
208.000000	99.845031
207.000000	99.868730
206.000000	99.857908
205.000000	99.848877
204.000000	99.851614
203.000000	99.860431
202.000000	99.841278
201.000000	99.837625
200.000000	99.874162
199.000000	99.838262
198.000000	99.860739
197.000000	99.819884
196.000000	99.781801
195.000000	99.750428
194.000000	99.700533
193.000000	99.652849
192.000000	99.549550
191.000000	99.480000
190.000000	99.313767
