Created as New Dataset,
nm,%T
800.0,100.11
799.0,100.12
798.0,100.13
797.0,100.07
796.0,100.12
795.0,100.13
794.0,100.08
793.0,100.06
792.0,100.09
791.0,100.09
790.0,100.07
789.0,100.06
788.0,100.09
787.0,100.05
786.0,100.08
785.0,100.12
784.0,100.09
783.0,100.03
782.0,100.15
781.0,100.16
780.0,100.06
779.0,100.07
778.0,100.11
777.0,100.08
776.0,100.11
775.0,100.12
774.0,100.13
773.0,100.08
772.0,100.07
771.0,100.08
770.0,100.09
769.0,100.12
768.0,100.11
767.0,100.09
766.0,100.09
765.0,100.07
764.0,100.11
763.0,100.08
762.0,100.04
761.0,100.07
760.0,100.10
759.0,100.08
758.0,100.09
757.0,100.06
756.0,100.07
755.0,100.08
754.0,100.10
753.0,100.08
752.0,100.05
751.0,100.11
750.0,100.09
749.0,100.11
748.0,100.08
747.0,100.06
746.0,100.06
745.0,100.05
744.0,100.10
743.0,100.11
742.0,100.07
741.0,100.03
740.0,100.07
739.0,100.06
738.0,100.08
737.0,100.09
736.0,100.10
735.0,100.09
734.0,100.05
733.0,100.05
732.0,100.06
731.0,100.09
730.0,100.09
729.0,100.10
728.0,100.09
727.0,100.07
726.0,100.08
725.0,100.08
724.0,100.07
723.0,100.08
722.0,100.06
721.0,100.07
720.0,100.06
719.0,100.05
718.0,100.07
717.0,100.09
716.0,100.07
715.0,100.06
714.0,100.09
713.0,100.10
712.0,100.09
711.0,100.08
710.0,100.09
709.0,100.08
708.0,100.08
707.0,100.09
706.0,100.10
705.0,100.12
704.0,100.11
703.0,100.08
702.0,100.05
701.0,100.03
700.0,100.04
699.0,100.06
698.0,100.08
697.0,100.10
696.0,100.09
695.0,100.08
694.0,100.10
693.0,100.09
692.0,100.08
691.0,100.08
690.0,100.07
689.0,100.09
688.0,100.08
687.0,100.07
686.0,100.07
685.0,100.08
684.0,100.08
683.0,100.07
682.0,100.07
681.0,100.06
680.0,100.07
679.0,100.11
678.0,100.10
677.0,100.07
676.0,100.06
675.0,100.08
674.0,100.10
673.0,100.09
672.0,100.08
671.0,100.08
670.0,100.08
669.0,100.08
668.0,100.07
667.0,100.08
666.0,100.08
665.0,100.09
664.0,100.09
663.0,100.07
662.0,100.08
661.0,100.09
660.0,100.08
659.0,100.07
658.0,100.07
657.0,100.06
656.0,100.06
655.0,100.07
654.0,100.09
653.0,100.10
652.0,100.10
651.0,100.09
650.0,100.08
649.0,100.07
648.0,100.06
647.0,100.09
646.0,100.09
645.0,100.08
644.0,100.08
643.0,100.09
642.0,100.06
641.0,100.05
640.0,100.09
639.0,100.09
638.0,100.09
637.0,100.08
636.0,100.08
635.0,100.08
634.0,100.07
633.0,100.08
632.0,100.08
631.0,100.07
630.0,100.08
629.0,100.08
628.0,100.08
627.0,100.08
626.0,100.06
625.0,100.06
624.0,100.06
623.0,100.06
622.0,100.07
621.0,100.06
620.0,100.07
619.0,100.06
618.0,100.04
617.0,100.06
616.0,100.07
615.0,100.07
614.0,100.07
613.0,100.07
612.0,100.09
611.0,100.08
610.0,100.07
609.0,100.09
608.0,100.07
607.0,100.06
606.0,100.09
605.0,100.08
604.0,100.09
603.0,100.07
602.0,100.08
601.0,100.08
600.0,100.08
599.0,100.08
598.0,100.09
597.0,100.08
596.0,100.08
595.0,100.07
594.0,100.07
593.0,100.08
592.0,100.08
591.0,100.09
590.0,100.06
589.0,100.05
588.0,100.07
587.0,100.06
586.0,100.07
585.0,100.09
584.0,100.07
583.0,100.07
582.0,100.09
581.0,100.09
580.0,100.09
579.0,100.07
578.0,100.08
577.0,100.09
576.0,100.06
575.0,100.07
574.0,100.07
573.0,100.09
572.0,100.06
571.0,100.10
570.0,100.08
569.0,100.09
568.0,100.08
567.0,100.09
566.0,100.08
565.0,100.08
564.0,100.10
563.0,100.07
562.0,100.07
561.0,100.06
560.0,100.07
559.0,100.06
558.0,100.07
557.0,100.06
556.0,100.07
555.0,100.07
554.0,100.08
553.0,100.07
552.0,100.06
551.0,100.07
550.0,100.07
549.0,100.06
548.0,100.09
547.0,100.08
546.0,100.07
545.0,100.07
544.0,100.08
543.0,100.08
542.0,100.07
541.0,100.07
540.0,100.07
539.0,100.08
538.0,100.08
537.0,100.04
536.0,100.07
535.0,100.09
534.0,100.08
533.0,100.09
532.0,100.08
531.0,100.08
530.0,100.07
529.0,100.07
528.0,100.10
527.0,100.09
526.0,100.09
525.0,100.08
524.0,100.07
523.0,100.08
522.0,100.07
521.0,100.07
520.0,100.08
519.0,100.09
518.0,100.09
517.0,100.08
516.0,100.08
515.0,100.07
514.0,100.06
513.0,100.07
512.0,100.08
511.0,100.09
510.0,100.09
509.0,100.05
508.0,100.07
507.0,100.06
506.0,100.06
505.0,100.06
504.0,100.07
503.0,100.08
502.0,100.08
501.0,100.08
500.0,100.07
499.0,100.05
498.0,100.08
497.0,100.06
496.0,100.07
495.0,100.07
494.0,100.06
493.0,100.05
492.0,100.05
491.0,100.05
490.0,100.06
489.0,100.08
488.0,100.10
487.0,100.06
486.0,100.07
485.0,100.07
484.0,100.09
483.0,100.04
482.0,100.07
481.0,100.07
480.0,100.07
479.0,100.08
478.0,100.07
477.0,100.07
476.0,100.07
475.0,100.06
474.0,100.05
473.0,100.08
472.0,100.07
471.0,100.07
470.0,100.07
469.0,100.06
468.0,100.05
467.0,100.06
466.0,100.06
465.0,100.07
464.0,100.07
463.0,100.06
462.0,100.07
461.0,100.09
460.0,100.07
459.0,100.06
458.0,100.07
457.0,100.06
456.0,100.07
455.0,100.05
454.0,100.06
453.0,100.07
452.0,100.10
451.0,100.07
450.0,100.09
449.0,100.06
448.0,100.06
447.0,100.05
446.0,100.08
445.0,100.08
444.0,100.07
443.0,100.05
442.0,100.06
441.0,100.08
440.0,100.09
439.0,100.07
438.0,100.06
437.0,100.07
436.0,100.06
435.0,100.09
434.0,100.05
433.0,100.05
432.0,100.03
431.0,100.04
430.0,100.03
429.0,100.05
428.0,100.06
427.0,100.04
426.0,100.06
425.0,100.07
424.0,100.07
423.0,100.06
422.0,100.06
421.0,100.07
420.0,100.04
419.0,100.04
418.0,100.08
417.0,100.09
416.0,100.07
415.0,100.05
414.0,100.07
413.0,100.07
412.0,100.08
411.0,100.07
410.0,100.05
409.0,100.05
408.0,100.06
407.0,100.07
406.0,100.05
405.0,100.04
404.0,100.05
403.0,100.03
402.0,100.04
401.0,100.05
400.0,100.06
399.0,100.06
398.0,100.07
397.0,100.08
396.0,100.07
395.0,100.06
394.0,100.05
393.0,100.05
392.0,100.05
391.0,100.04
390.0,100.06
389.0,100.07
388.0,100.06
387.0,100.05
386.0,100.04
385.0,100.06
384.0,100.07
383.0,100.05
382.0,100.02
381.0,100.04
380.0,100.06
379.0,100.03
378.0,100.04
377.0,100.10
376.0,100.09
375.0,100.05
374.0,100.06
373.0,100.08
372.0,100.06
371.0,100.04
370.0,100.04
369.0,100.10
368.0,100.10
367.0,100.05
366.0,100.01
365.0,100.04
364.0,100.08
363.0,100.07
362.0,100.07
361.0,100.05
360.0,100.04
359.0,100.03
358.0,100.04
357.0,100.06
356.0,100.04
355.0,100.02
354.0,100.00
353.0,100.02
352.0,100.04
351.0,100.03
350.0,99.99
349.0,100.00
348.0,100.02
347.0,100.06
346.0,100.07
345.0,100.02
344.0,100.01
343.0,100.03
342.0,100.03
341.0,100.02
340.0,100.00
339.0,100.03
338.0,100.08
337.0,100.07
336.0,100.07
335.0,100.09
334.0,100.06
333.0,100.03
332.0,100.01
331.0,100.01
330.0,100.07
329.0,100.03
328.0,99.97
327.0,100.04
326.0,100.08
325.0,100.05
324.0,99.99
323.0,100.03
322.0,100.06
321.0,100.07
320.0,100.02
319.0,100.00
318.0,100.00
317.0,100.02
316.0,100.01
315.0,99.99
314.0,99.99
313.0,100.01
312.0,100.05
311.0,99.99
310.0,100.00
309.0,100.00
308.0,100.02
307.0,100.04
306.0,100.01
305.0,100.01
304.0,99.96
303.0,100.03
302.0,100.02
301.0,100.01
300.0,100.01
299.0,99.99
298.0,100.02
297.0,100.05
296.0,99.98
295.0,99.97
294.0,99.97
293.0,99.97
292.0,100.02
291.0,100.00
290.0,99.98
289.0,99.97
288.0,99.97
287.0,99.98
286.0,99.99
285.0,99.98
284.0,99.99
283.0,99.99
282.0,99.96
281.0,99.97
280.0,99.98
279.0,99.95
278.0,99.94
277.0,99.94
276.0,99.93
275.0,99.95
274.0,99.96
273.0,99.93
272.0,99.93
271.0,99.90
270.0,99.93
269.0,99.91
268.0,99.92
267.0,99.88
266.0,99.93
265.0,99.95
264.0,99.92
263.0,99.93
262.0,99.96
261.0,99.92
260.0,99.94
259.0,99.92
258.0,99.94
257.0,99.90
256.0,99.93
255.0,99.93
254.0,99.92
253.0,99.89
252.0,99.89
251.0,99.90
250.0,99.91
249.0,99.87
248.0,99.90
247.0,99.87
246.0,99.90
245.0,99.89
244.0,99.87
243.0,99.89
242.0,99.86
241.0,99.89
240.0,99.88
239.0,99.87
238.0,99.88
237.0,99.84
236.0,99.87
235.0,99.88
234.0,99.85
233.0,99.84
232.0,99.86
231.0,99.83
230.0,99.82
229.0,99.85
228.0,99.80
227.0,99.83
226.0,99.80
225.0,99.80
224.0,99.77
223.0,99.81
222.0,99.78
221.0,99.79
220.0,99.79
219.0,99.78
218.0,99.76
217.0,99.74
216.0,99.72
215.0,99.69
214.0,99.69
213.0,99.71
212.0,99.71
211.0,99.69
210.0,99.67
209.0,99.63
208.0,99.65
207.0,99.66
206.0,99.63
205.0,99.61
204.0,99.60
203.0,99.61
202.0,99.58
201.0,99.51
200.0,99.58
199.0,99.56
198.0,99.51
197.0,99.46
196.0,99.39
195.0,99.33
194.0,99.20
193.0,99.13
192.0,98.98
191.0,98.77
190.0,98.29
