PE UV       SUBTECH     SPECTRUM    ASCII       PEDS        4.00        
   -1
C2F6_3bar.Sample.Cycle3.ASC
26/05/13
18:26:53.00
26/05/13
18:26:53.00
Jinky Agarwala

190.000000
1
Lambda 850+
860L2410213
PerkinElmer UV WinLab 7.4.0.367 / 2.02.11 Lambda 800 UV/VIS, May 23 2018 11:23:04

0
0
1
0
0
UV/VIS
1
1
10
RBeamAtt,SBeamAtt,uv/vis detector
0
0
0
0
Fix
 
0
0.2
0
0
0
 
 
 
0
 
0
319.2
0
Front
100
 
S:100 R:100
 
0
0
0
 
0
 
 
 
0
 
 
0
0
0
0
0
 
 
 
 
0
0


0
0

0


#HDR
-1
-1
#GR
nm
%T
1.0
0.0
800.000000
-1.000000
611
8
100.057850
99.357984
#DATA
800.000000	100.010882
799.000000	99.993251
798.000000	100.040291
797.000000	100.057626
796.000000	100.042158
795.000000	100.022556
794.000000	99.987909
793.000000	99.948472
792.000000	99.981255
791.000000	100.009157
790.000000	99.998037
789.000000	99.993892
788.000000	99.986471
787.000000	99.993125
786.000000	99.975225
785.000000	100.018452
784.000000	99.987226
783.000000	99.977833
782.000000	100.008853
781.000000	100.046695
780.000000	100.008309
779.000000	100.038819
778.000000	100.049556
777.000000	100.008861
776.000000	100.008648
775.000000	99.977557
774.000000	100.023000
773.000000	100.028811
772.000000	99.962641
771.000000	99.992439
770.000000	100.036063
769.000000	100.049353
768.000000	100.040803
767.000000	100.022384
766.000000	99.997585
765.000000	100.004390
764.000000	100.020095
763.000000	100.018226
762.000000	99.989785
761.000000	100.023954
760.000000	100.014951
759.000000	100.004288
758.000000	100.001540
757.000000	99.987786
756.000000	99.999340
755.000000	100.021467
754.000000	99.989759
753.000000	100.000110
752.000000	99.982812
751.000000	100.011574
750.000000	99.974430
749.000000	100.010367
748.000000	100.019748
747.000000	100.040605
746.000000	99.986535
745.000000	100.005189
744.000000	100.042418
743.000000	100.019227
742.000000	99.997680
741.000000	99.979114
740.000000	99.992371
739.000000	99.960964
738.000000	100.019694
737.000000	100.013058
736.000000	100.009299
735.000000	99.994021
734.000000	100.008194
733.000000	99.995680
732.000000	99.994237
731.000000	99.995898
730.000000	100.002218
729.000000	100.027184
728.000000	100.013760
727.000000	100.013651
726.000000	99.993783
725.000000	99.996335
724.000000	100.002666
723.000000	100.007665
722.000000	99.984109
721.000000	99.991551
720.000000	100.002669
719.000000	99.996218
718.000000	99.979083
717.000000	99.983084
716.000000	100.002894
715.000000	99.995658
714.000000	100.002895
713.000000	100.009135
712.000000	99.986963
711.000000	100.001449
710.000000	99.988629
709.000000	99.995428
708.000000	99.996430
707.000000	100.010265
706.000000	100.014622
705.000000	100.013287
704.000000	100.022673
703.000000	100.013739
702.000000	99.990282
701.000000	99.958666
700.000000	99.969495
699.000000	99.980886
698.000000	99.991836
697.000000	100.012865
696.000000	100.025736
695.000000	100.012534
694.000000	99.998209
693.000000	99.997873
692.000000	100.000896
691.000000	99.995408
690.000000	99.995520
689.000000	100.006162
688.000000	99.991261
687.000000	99.973221
686.000000	99.984419
685.000000	99.987443
684.000000	99.995066
683.000000	99.988785
682.000000	99.979582
681.000000	99.970380
680.000000	100.002357
679.000000	100.018302
678.000000	100.014262
677.000000	99.999326
676.000000	100.017300
675.000000	100.020225
674.000000	100.023261
673.000000	100.004046
672.000000	99.990893
671.000000	100.018444
670.000000	100.007198
669.000000	100.000225
668.000000	100.024303
667.000000	100.026223
666.000000	100.013057
665.000000	100.003490
664.000000	99.996059
663.000000	100.006869
662.000000	100.019261
661.000000	100.022308
660.000000	100.007888
659.000000	99.998873
658.000000	100.004058
657.000000	99.991769
656.000000	99.992784
655.000000	99.998760
654.000000	100.001015
653.000000	100.020421
652.000000	100.026518
651.000000	100.014785
650.000000	100.000903
649.000000	99.992325
648.000000	99.999436
647.000000	100.023150
646.000000	100.031739
645.000000	100.025641
644.000000	100.002485
643.000000	99.996610
642.000000	99.985311
641.000000	99.984856
640.000000	99.997400
639.000000	99.990163
638.000000	99.988353
637.000000	100.002262
636.000000	100.001810
635.000000	99.991968
634.000000	99.999661
633.000000	99.997284
632.000000	100.005999
631.000000	99.996151
630.000000	99.979283
629.000000	99.988564
628.000000	99.999321
627.000000	100.008608
626.000000	100.003058
625.000000	99.983690
624.000000	99.999660
623.000000	100.003173
622.000000	99.995127
621.000000	99.988553
620.000000	99.995239
619.000000	99.993424
618.000000	99.977326
617.000000	99.993310
616.000000	99.993762
615.000000	99.988885
614.000000	99.989904
613.000000	100.000340
612.000000	100.014072
611.000000	100.007832
610.000000	99.997843
609.000000	100.012716
608.000000	100.008061
607.000000	99.992279
606.000000	99.997615
605.000000	100.001022
604.000000	100.003522
603.000000	99.997273
602.000000	100.017728
601.000000	100.020004
600.000000	100.001364
599.000000	99.997726
598.000000	100.013986
597.000000	99.991130
596.000000	100.006711
595.000000	100.021728
594.000000	100.012971
593.000000	99.988393
592.000000	99.991236
591.000000	100.007741
590.000000	100.000114
589.000000	100.001936
588.000000	100.007631
587.000000	99.992938
586.000000	99.991683
585.000000	100.025416
584.000000	100.000456
583.000000	99.998404
582.000000	100.018588
581.000000	99.994526
580.000000	100.002624
579.000000	100.015517
578.000000	100.014035
577.000000	99.996691
576.000000	99.992011
575.000000	99.998630
574.000000	99.999543
573.000000	100.003540
572.000000	100.010507
571.000000	100.016796
570.000000	100.008456
569.000000	100.016116
568.000000	100.004686
567.000000	99.993255
566.000000	99.988680
565.000000	100.003660
564.000000	100.008465
563.000000	100.023225
562.000000	99.984446
561.000000	99.984335
560.000000	100.002516
559.000000	100.008465
558.000000	100.010183
557.000000	100.011901
556.000000	99.994392
555.000000	100.003893
554.000000	99.996107
553.000000	99.995533
552.000000	100.003895
551.000000	100.001719
550.000000	99.982809
549.000000	99.995300
548.000000	100.013531
547.000000	100.011356
546.000000	100.000115
545.000000	100.000115
544.000000	100.004018
543.000000	100.003215
542.000000	100.014355
541.000000	100.019415
540.000000	99.988281
539.000000	100.016209
538.000000	99.992526
537.000000	99.968951
536.000000	99.988264
535.000000	100.010129
534.000000	100.014392
533.000000	100.013248
532.000000	100.012445
531.000000	99.984438
530.000000	99.983393
529.000000	99.984540
528.000000	100.014663
527.000000	100.018483
526.000000	100.012597
525.000000	99.998612
524.000000	99.991554
523.000000	100.007641
522.000000	99.999652
521.000000	100.000116
520.000000	99.998840
519.000000	100.003368
518.000000	99.998489
517.000000	99.993138
516.000000	100.016064
515.000000	100.018875
514.000000	100.002798
513.000000	99.998716
512.000000	100.006190
511.000000	100.019168
510.000000	100.010759
509.000000	100.005617
508.000000	99.991220
507.000000	100.005270
506.000000	100.012535
505.000000	100.009257
504.000000	100.001055
503.000000	100.002226
502.000000	99.985588
501.000000	99.997774
500.000000	99.989341
499.000000	100.009485
498.000000	100.018968
497.000000	99.993564
496.000000	100.001287
495.000000	99.988421
494.000000	99.993920
493.000000	99.995442
492.000000	99.998832
491.000000	99.991822
490.000000	99.984001
489.000000	100.008642
488.000000	100.035618
487.000000	100.012610
486.000000	100.010391
485.000000	99.979456
484.000000	100.022647
483.000000	99.983429
482.000000	99.996383
481.000000	99.986705
480.000000	99.990779
479.000000	99.999883
478.000000	100.003275
477.000000	100.000234
476.000000	100.008547
475.000000	100.004803
474.000000	99.990154
473.000000	100.000235
472.000000	99.994601
471.000000	100.009749
470.000000	100.020097
469.000000	99.996943
468.000000	99.994823
467.000000	100.002943
466.000000	99.976681
465.000000	100.001885
464.000000	99.986679
463.000000	100.009316
462.000000	99.988087
461.000000	100.008141
460.000000	100.006608
459.000000	99.999646
458.000000	100.007317
457.000000	99.973097
456.000000	100.018412
455.000000	99.987373
454.000000	100.008970
453.000000	100.014989
452.000000	100.007790
451.000000	100.006492
450.000000	100.026322
449.000000	100.004721
448.000000	100.026685
447.000000	99.986190
446.000000	100.008501
445.000000	100.023142
444.000000	100.009325
443.000000	99.992210
442.000000	100.003897
441.000000	100.021151
440.000000	100.019978
439.000000	100.015371
438.000000	100.016204
437.000000	99.996806
436.000000	99.983668
435.000000	100.011841
434.000000	99.980343
433.000000	99.978795
432.000000	99.973340
431.000000	99.972621
430.000000	99.998696
429.000000	99.994663
428.000000	99.989322
427.000000	99.983504
426.000000	100.011753
425.000000	100.024231
424.000000	100.040991
423.000000	100.014499
422.000000	100.012719
421.000000	100.007967
420.000000	99.990485
419.000000	99.990245
418.000000	100.004761
417.000000	100.015478
416.000000	100.008574
415.000000	99.996903
414.000000	99.991183
413.000000	99.983075
412.000000	99.997854
411.000000	100.000119
410.000000	99.990338
409.000000	99.998807
408.000000	99.982336
407.000000	99.967167
406.000000	99.979101
405.000000	99.979694
404.000000	100.002151
403.000000	100.000837
402.000000	99.989957
401.000000	99.984575
400.000000	99.982295
399.000000	99.976069
398.000000	99.993775
397.000000	100.023711
396.000000	100.044197
395.000000	100.024441
394.000000	99.991612
393.000000	99.986217
392.000000	99.965837
391.000000	99.969543
390.000000	100.007197
389.000000	100.025195
388.000000	100.030362
387.000000	100.002760
386.000000	99.988118
385.000000	99.994357
384.000000	99.978146
383.000000	99.980788
382.000000	99.960018
381.000000	99.966855
380.000000	99.978739
379.000000	99.956674
378.000000	99.956185
377.000000	100.000476
376.000000	99.965448
375.000000	99.968742
374.000000	100.047078
373.000000	100.046397
372.000000	100.002752
371.000000	99.978928
370.000000	99.970410
369.000000	99.961156
368.000000	99.965685
367.000000	99.974917
366.000000	99.934464
365.000000	99.951831
364.000000	99.997355
363.000000	100.043175
362.000000	100.027066
361.000000	99.965831
360.000000	99.980621
359.000000	99.971463
358.000000	99.966520
357.000000	99.993374
356.000000	99.996626
355.000000	100.034351
354.000000	100.028690
353.000000	100.001326
352.000000	100.003618
351.000000	100.004825
350.000000	99.984920
349.000000	99.976230
348.000000	100.025108
347.000000	100.057850
346.000000	100.018965
345.000000	99.960394
344.000000	99.956049
343.000000	99.983454
342.000000	99.983813
341.000000	99.969196
340.000000	99.950709
339.000000	99.964474
338.000000	100.014746
337.000000	100.000000
336.000000	100.001330
335.000000	100.002056
334.000000	99.998065
333.000000	100.017301
332.000000	100.026978
331.000000	99.988509
330.000000	100.010529
329.000000	100.039462
328.000000	99.947475
327.000000	99.985350
326.000000	100.030759
325.000000	99.998426
324.000000	99.950481
323.000000	99.980381
322.000000	99.974798
321.000000	99.966679
320.000000	99.961226
319.000000	99.944198
318.000000	99.957555
317.000000	100.009291
316.000000	99.982622
315.000000	99.961014
314.000000	99.982729
313.000000	99.972445
312.000000	99.972308
311.000000	99.918502
310.000000	99.955351
309.000000	99.966220
308.000000	99.954690
307.000000	99.994666
306.000000	99.980959
305.000000	99.977432
304.000000	99.982520
303.000000	99.997327
302.000000	99.981035
301.000000	99.993067
300.000000	99.986491
299.000000	99.952878
298.000000	99.961487
297.000000	99.980849
296.000000	99.955577
295.000000	99.974105
294.000000	99.969196
293.000000	99.964888
292.000000	99.969383
291.000000	99.955880
290.000000	99.991658
289.000000	99.954699
288.000000	99.952080
287.000000	99.965932
286.000000	99.963806
285.000000	99.985582
284.000000	99.982487
283.000000	99.969390
282.000000	99.941098
281.000000	99.956132
280.000000	99.938668
279.000000	99.961268
278.000000	99.935250
277.000000	99.960850
276.000000	99.962815
275.000000	99.935277
274.000000	99.960915
273.000000	99.946631
272.000000	99.943635
271.000000	99.936292
270.000000	99.944839
269.000000	99.931657
268.000000	99.945676
267.000000	99.961582
266.000000	99.976369
265.000000	99.947758
264.000000	99.926116
263.000000	99.945138
262.000000	99.952596
261.000000	99.955832
260.000000	99.974125
259.000000	99.936943
258.000000	99.968911
257.000000	99.933996
256.000000	99.935374
255.000000	99.958374
254.000000	99.962616
253.000000	99.931352
252.000000	99.954333
251.000000	99.938234
250.000000	99.969000
249.000000	99.944109
248.000000	99.934093
247.000000	99.929806
246.000000	99.964235
245.000000	99.940642
244.000000	99.911426
243.000000	99.942600
242.000000	99.940205
241.000000	99.906048
240.000000	99.911474
239.000000	99.928662
238.000000	99.940278
237.000000	99.904621
236.000000	99.928067
235.000000	99.922638
234.000000	99.913288
233.000000	99.907196
232.000000	99.930619
231.000000	99.933043
230.000000	99.930801
229.000000	99.920583
228.000000	99.915840
227.000000	99.909571
226.000000	99.910155
225.000000	99.894488
224.000000	99.883790
223.000000	99.909607
222.000000	99.903309
221.000000	99.929412
220.000000	99.915773
219.000000	99.903310
218.000000	99.898804
217.000000	99.902038
216.000000	99.893828
215.000000	99.860946
214.000000	99.898108
213.000000	99.896357
212.000000	99.919218
211.000000	99.885272
210.000000	99.881021
209.000000	99.869883
208.000000	99.878174
207.000000	99.891475
206.000000	99.871086
205.000000	99.859363
204.000000	99.874655
203.000000	99.849980
202.000000	99.848728
201.000000	99.823703
200.000000	99.862856
199.000000	99.829209
198.000000	99.868596
197.000000	99.819477
196.000000	99.785460
195.000000	99.759094
194.000000	99.700263
193.000000	99.678320
192.000000	99.587966
191.000000	99.519590
190.000000	99.357984
