PE UV       SUBTECH     SPECTRUM    ASCII       PEDS        4.00        
   -1
C2F6_3bar.Sample.Cycle8.ASC
26/05/13
18:26:53.00
26/05/13
18:26:53.00
Jinky Agarwala

190.000000
1
Lambda 850+
860L2410213
PerkinElmer UV WinLab 7.4.0.367 / 2.02.11 Lambda 800 UV/VIS, May 23 2018 11:23:04

0
0
1
0
0
UV/VIS
1
1
10
RBeamAtt,SBeamAtt,uv/vis detector
0
0
0
0
Fix
 
0
0.2
0
0
0
 
 
 
0
 
0
319.2
0
Front
100
 
S:100 R:100
 
0
0
0
 
0
 
 
 
0
 
 
0
0
0
0
0
 
 
 
 
0
0


0
0

0


#HDR
-1
-1
#GR
nm
%T
1.0
0.0
800.000000
-1.000000
611
8
100.111003
99.201968
#DATA
800.000000	100.025246
799.000000	100.036684
798.000000	100.041272
797.000000	100.111003
796.000000	100.107083
795.000000	100.059494
794.000000	100.020479
793.000000	99.949126
792.000000	100.005667
791.000000	100.009157
790.000000	100.034130
789.000000	100.059555
788.000000	100.034695
787.000000	100.042558
786.000000	100.008622
785.000000	100.054593
784.000000	99.987117
783.000000	99.972919
782.000000	100.022298
781.000000	100.076003
780.000000	100.006560
779.000000	99.998797
778.000000	100.054151
777.000000	99.999891
776.000000	100.025945
775.000000	100.069628
774.000000	100.022891
773.000000	100.042066
772.000000	100.009093
771.000000	100.001205
770.000000	100.021923
769.000000	100.043650
768.000000	100.015685
767.000000	100.022713
766.000000	99.996927
765.000000	100.031499
764.000000	100.041177
763.000000	100.002196
762.000000	100.010325
761.000000	99.991649
760.000000	100.042435
759.000000	100.005388
758.000000	100.015728
757.000000	100.033560
756.000000	100.005393
755.000000	99.991523
754.000000	100.019160
753.000000	99.995704
752.000000	100.003195
751.000000	100.062938
750.000000	100.003196
749.000000	100.018528
748.000000	100.006950
747.000000	100.013241
746.000000	100.005960
745.000000	100.022414
744.000000	100.042528
743.000000	100.040995
742.000000	100.028727
741.000000	99.969279
740.000000	100.011942
739.000000	99.995687
738.000000	100.016817
737.000000	100.018591
736.000000	100.014170
735.000000	100.004982
734.000000	99.992359
733.000000	99.979840
732.000000	100.028702
731.000000	100.025944
730.000000	100.027725
729.000000	100.043273
728.000000	100.028518
727.000000	99.996227
726.000000	100.008770
725.000000	100.020325
724.000000	99.968012
723.000000	99.962452
722.000000	99.965885
721.000000	99.988438
720.000000	100.020794
719.000000	100.015793
718.000000	100.020917
717.000000	100.010572
716.000000	99.989537
715.000000	99.999221
714.000000	100.003230
713.000000	100.013926
712.000000	100.013260
711.000000	100.029534
710.000000	100.002675
709.000000	100.012156
708.000000	100.002343
707.000000	100.019861
706.000000	100.038062
705.000000	100.047898
704.000000	100.055064
703.000000	100.019435
702.000000	100.012734
701.000000	99.983131
700.000000	99.978658
699.000000	99.993517
698.000000	100.013979
697.000000	100.032218
696.000000	100.027638
695.000000	100.019809
694.000000	100.003134
693.000000	100.004926
692.000000	100.001456
691.000000	100.014896
690.000000	100.014337
689.000000	100.024198
688.000000	100.000448
687.000000	99.980504
686.000000	100.009416
685.000000	100.022087
684.000000	100.025343
683.000000	100.001794
682.000000	99.994615
681.000000	99.988219
680.000000	100.001796
679.000000	100.011116
678.000000	100.009546
677.000000	100.023248
676.000000	100.031568
675.000000	100.012360
674.000000	100.019553
673.000000	100.008542
672.000000	100.015403
671.000000	100.034864
670.000000	100.018108
669.000000	100.015973
668.000000	100.023403
667.000000	100.028587
666.000000	100.024539
665.000000	100.029834
664.000000	100.009570
663.000000	100.010697
662.000000	100.015093
661.000000	100.018928
660.000000	100.029185
659.000000	100.021413
658.000000	100.010033
657.000000	100.001917
656.000000	99.995377
655.000000	99.993685
654.000000	99.995601
653.000000	100.010492
652.000000	100.017829
651.000000	100.014898
650.000000	100.010610
649.000000	99.982166
648.000000	99.975051
647.000000	100.014342
646.000000	100.019879
645.000000	100.011860
644.000000	100.010054
643.000000	100.017628
642.000000	100.007345
641.000000	100.001582
640.000000	100.014471
639.000000	100.018883
638.000000	100.015379
637.000000	100.019566
636.000000	100.015949
635.000000	100.012218
634.000000	100.007241
633.000000	100.012222
632.000000	100.015960
631.000000	100.016866
630.000000	100.011887
629.000000	100.015399
628.000000	100.004303
627.000000	100.013818
626.000000	100.014159
625.000000	100.002945
624.000000	100.004645
623.000000	100.011218
622.000000	100.022892
621.000000	100.009860
620.000000	100.014397
619.000000	100.011564
618.000000	99.996372
617.000000	99.997619
616.000000	99.992628
615.000000	99.993989
614.000000	99.998639
613.000000	99.999206
612.000000	100.010667
611.000000	100.019296
610.000000	100.016459
609.000000	100.022366
608.000000	100.003519
607.000000	99.999659
606.000000	100.018852
605.000000	100.012834
604.000000	100.012837
603.000000	100.008067
602.000000	100.016591
601.000000	100.016139
600.000000	99.995681
599.000000	100.005115
598.000000	100.016601
597.000000	100.013078
596.000000	100.011147
595.000000	100.005233
594.000000	100.016043
593.000000	100.010924
592.000000	100.005463
591.000000	100.007400
590.000000	100.003529
589.000000	100.005694
588.000000	100.015604
587.000000	100.006721
586.000000	100.007406
585.000000	100.016526
584.000000	100.009688
583.000000	100.009690
582.000000	100.014368
581.000000	100.012203
580.000000	100.011749
579.000000	100.018712
578.000000	100.007417
577.000000	99.989616
576.000000	99.984593
575.000000	99.999087
574.000000	99.997488
573.000000	99.996460
572.000000	99.991891
571.000000	100.031879
570.000000	100.014741
569.000000	100.029261
568.000000	100.009944
567.000000	100.007431
566.000000	100.008232
565.000000	100.017040
564.000000	100.034432
563.000000	100.019907
562.000000	100.005146
561.000000	99.998056
560.000000	100.021044
559.000000	99.994395
558.000000	100.011556
557.000000	100.001144
556.000000	99.995307
555.000000	100.022898
554.000000	100.010993
553.000000	100.023366
552.000000	100.017413
551.000000	100.002979
550.000000	100.003094
549.000000	99.995300
548.000000	100.011582
547.000000	100.023399
546.000000	100.000000
545.000000	100.019851
544.000000	100.014579
543.000000	100.002985
542.000000	99.994603
541.000000	100.007697
540.000000	100.000919
539.000000	100.010921
538.000000	99.999770
537.000000	99.981830
536.000000	100.018754
535.000000	100.022791
534.000000	100.002878
533.000000	100.028914
532.000000	100.023392
531.000000	100.000807
530.000000	100.003575
529.000000	100.004269
528.000000	100.015702
527.000000	100.021602
526.000000	100.016179
525.000000	100.015148
524.000000	100.012611
523.000000	100.009726
522.000000	100.003939
521.000000	99.991189
520.000000	100.004177
519.000000	100.008477
518.000000	99.997908
517.000000	100.014655
516.000000	100.018393
515.000000	100.019457
514.000000	100.011776
513.000000	100.009802
512.000000	100.012496
511.000000	100.007129
510.000000	100.022922
509.000000	100.001404
508.000000	100.016741
507.000000	99.994144
506.000000	100.011481
505.000000	100.002695
504.000000	100.008085
503.000000	100.001641
502.000000	100.009140
501.000000	100.034447
500.000000	100.004685
499.000000	100.012413
498.000000	100.002225
497.000000	99.999181
496.000000	100.030539
495.000000	100.006666
494.000000	100.039171
493.000000	99.988196
492.000000	99.998598
491.000000	100.003738
490.000000	99.972907
489.000000	100.003270
488.000000	100.023940
487.000000	100.020199
486.000000	100.014243
485.000000	100.002218
484.000000	100.022180
483.000000	99.979812
482.000000	99.980167
481.000000	100.005948
480.000000	100.000584
479.000000	100.018583
478.000000	100.005263
477.000000	99.993564
476.000000	99.981617
475.000000	99.991916
474.000000	99.995077
473.000000	100.014663
472.000000	100.001526
471.000000	100.007752
470.000000	100.010930
469.000000	99.986478
468.000000	99.991764
467.000000	100.005062
466.000000	100.008715
465.000000	99.997054
464.000000	100.014499
463.000000	100.008962
462.000000	99.985492
461.000000	100.004012
460.000000	99.992920
459.000000	99.995043
458.000000	100.000472
457.000000	99.991622
456.000000	100.008852
455.000000	100.004720
454.000000	100.007908
453.000000	100.002597
452.000000	99.994924
451.000000	100.009915
450.000000	100.008499
449.000000	100.014400
448.000000	100.031644
447.000000	99.989967
446.000000	100.010508
445.000000	100.040498
444.000000	100.025497
443.000000	100.022191
442.000000	100.002480
441.000000	100.006617
440.000000	100.013122
439.000000	100.014662
438.000000	100.010053
437.000000	99.998580
436.000000	99.992899
435.000000	100.019894
434.000000	100.001184
433.000000	99.989220
432.000000	100.002725
431.000000	99.993837
430.000000	100.002964
429.000000	100.006998
428.000000	99.994898
427.000000	99.991811
426.000000	100.000237
425.000000	100.032665
424.000000	100.033624
423.000000	100.011052
422.000000	100.002734
421.000000	100.002022
420.000000	99.991080
419.000000	100.010112
418.000000	100.024758
417.000000	100.005001
416.000000	99.995475
415.000000	100.003097
414.000000	99.987846
413.000000	99.995709
412.000000	100.025041
411.000000	100.024569
410.000000	99.997853
409.000000	99.992125
408.000000	100.000955
407.000000	100.019461
406.000000	100.018988
405.000000	99.986383
404.000000	99.976821
403.000000	100.005140
402.000000	99.997489
401.000000	99.986608
400.000000	100.018064
399.000000	100.019145
398.000000	100.014245
397.000000	100.024310
396.000000	100.015571
395.000000	100.025879
394.000000	100.019892
393.000000	99.993768
392.000000	99.984897
391.000000	100.013070
390.000000	100.019792
389.000000	100.012597
388.000000	100.039843
387.000000	100.027365
386.000000	100.011642
385.000000	100.014767
384.000000	100.001561
383.000000	99.983310
382.000000	99.994477
381.000000	100.002522
380.000000	99.990871
379.000000	99.962299
378.000000	99.955352
377.000000	99.997143
376.000000	100.003693
375.000000	100.030304
374.000000	100.042537
373.000000	100.033841
372.000000	100.026560
371.000000	100.010416
370.000000	99.998443
369.000000	100.015945
368.000000	100.019677
367.000000	100.009961
366.000000	99.948388
365.000000	99.955074
364.000000	100.026329
363.000000	100.024293
362.000000	100.002646
361.000000	99.989052
360.000000	99.988325
359.000000	99.994461
358.000000	100.002409
357.000000	100.016024
356.000000	99.994336
355.000000	99.976256
354.000000	99.959858
353.000000	99.944778
352.000000	99.955616
351.000000	99.984679
350.000000	99.980697
349.000000	99.991916
348.000000	100.008933
347.000000	100.037319
346.000000	100.044816
345.000000	99.978023
344.000000	99.955807
343.000000	99.971014
342.000000	99.984780
341.000000	99.978135
340.000000	99.953971
339.000000	99.987675
338.000000	100.009669
337.000000	100.024664
336.000000	100.052004
335.000000	100.052612
334.000000	100.019349
333.000000	100.027947
332.000000	100.025163
331.000000	99.990565
330.000000	100.012465
329.000000	100.009926
328.000000	99.975674
327.000000	100.022036
326.000000	100.051952
325.000000	100.029428
324.000000	99.944064
323.000000	99.924794
322.000000	99.991397
321.000000	99.992972
320.000000	99.978917
319.000000	99.958692
318.000000	99.945618
317.000000	99.988417
316.000000	99.946175
315.000000	99.929873
314.000000	99.981158
313.000000	99.999758
312.000000	100.018985
311.000000	99.933496
310.000000	99.954746
309.000000	99.954839
308.000000	99.979526
307.000000	100.018064
306.000000	99.975016
305.000000	99.958140
304.000000	99.969288
303.000000	99.991617
302.000000	99.994165
301.000000	100.000851
300.000000	99.958986
299.000000	99.933762
298.000000	99.977818
297.000000	99.987436
296.000000	99.978033
295.000000	99.972640
294.000000	99.964062
293.000000	99.968314
292.000000	99.980528
291.000000	99.994362
290.000000	99.975220
289.000000	99.955558
288.000000	99.935370
287.000000	99.944040
286.000000	99.963683
285.000000	99.983610
284.000000	99.959425
283.000000	99.980992
282.000000	99.969500
281.000000	99.931665
280.000000	99.949179
279.000000	99.961516
278.000000	99.962983
277.000000	99.971381
276.000000	99.963311
275.000000	99.936641
274.000000	99.965506
273.000000	99.948865
272.000000	99.979143
271.000000	99.921762
270.000000	99.952418
269.000000	99.959616
268.000000	99.949529
267.000000	99.946538
266.000000	99.950747
265.000000	99.939548
264.000000	99.925121
263.000000	99.935310
262.000000	99.955831
261.000000	99.968896
260.000000	99.948500
259.000000	99.953236
258.000000	99.935335
257.000000	99.923182
256.000000	99.926922
255.000000	99.967072
254.000000	99.952929
253.000000	99.949227
252.000000	99.954829
251.000000	99.920995
250.000000	99.958212
249.000000	99.917341
248.000000	99.939915
247.000000	99.919531
246.000000	99.947652
245.000000	99.944105
244.000000	99.929092
243.000000	99.933836
242.000000	99.958945
241.000000	99.922918
240.000000	99.919343
239.000000	99.934187
238.000000	99.926911
237.000000	99.886990
236.000000	99.947396
235.000000	99.943904
234.000000	99.928066
233.000000	99.921361
232.000000	99.934527
231.000000	99.937319
230.000000	99.921631
229.000000	99.928292
228.000000	99.911063
227.000000	99.922332
226.000000	99.917652
225.000000	99.897813
224.000000	99.914261
223.000000	99.910101
222.000000	99.907028
221.000000	99.917606
220.000000	99.923747
219.000000	99.915677
218.000000	99.881145
217.000000	99.889605
216.000000	99.866624
215.000000	99.861072
214.000000	99.863636
213.000000	99.887074
212.000000	99.893312
211.000000	99.896924
210.000000	99.866502
209.000000	99.866659
208.000000	99.870277
207.000000	99.865481
206.000000	99.840815
205.000000	99.829610
204.000000	99.852930
203.000000	99.832517
202.000000	99.841943
201.000000	99.812458
200.000000	99.834459
199.000000	99.809347
198.000000	99.828768
197.000000	99.790745
196.000000	99.716341
195.000000	99.732959
194.000000	99.658021
193.000000	99.643281
192.000000	99.569158
191.000000	99.483599
190.000000	99.201968
