PE UV       SUBTECH     SPECTRUM    ASCII       PEDS        4.00        
   -1
C2F6_3bar.Sample.Cycle4.ASC
26/05/13
18:26:53.00
26/05/13
18:26:53.00
Jinky Agarwala

190.000000
1
Lambda 850+
860L2410213
PerkinElmer UV WinLab 7.4.0.367 / 2.02.11 Lambda 800 UV/VIS, May 23 2018 11:23:04

0
0
1
0
0
UV/VIS
1
1
10
RBeamAtt,SBeamAtt,uv/vis detector
0
0
0
0
Fix
 
0
0.2
0
0
0
 
 
 
0
 
0
319.2
0
Front
100
 
S:100 R:100
 
0
0
0
 
0
 
 
 
0
 
 
0
0
0
0
0
 
 
 
 
0
0


0
0

0


#HDR
-1
-1
#GR
nm
%T
1.0
0.0
800.000000
-1.000000
611
8
100.079998
99.299115
#DATA
800.000000	100.052450
799.000000	100.019594
798.000000	100.069693
797.000000	100.075273
796.000000	100.033879
795.000000	100.055789
794.000000	99.974401
793.000000	99.955227
792.000000	100.000872
791.000000	99.965770
790.000000	99.965216
789.000000	99.990183
788.000000	100.012220
787.000000	99.990943
786.000000	99.982974
785.000000	100.007643
784.000000	99.973797
783.000000	99.976522
782.000000	100.019128
781.000000	100.070098
780.000000	100.061009
779.000000	99.984144
778.000000	100.002297
777.000000	100.000328
776.000000	100.044993
775.000000	100.006678
774.000000	100.029682
773.000000	100.041628
772.000000	99.972830
771.000000	99.986412
770.000000	100.006467
769.000000	100.050998
768.000000	100.052868
767.000000	100.041038
766.000000	99.968172
765.000000	100.009219
764.000000	100.030416
763.000000	100.014164
762.000000	99.998682
761.000000	99.984068
760.000000	100.007256
759.000000	100.006267
758.000000	100.021447
757.000000	100.033450
756.000000	100.022011
755.000000	100.002972
754.000000	99.993613
753.000000	100.014321
752.000000	100.019171
751.000000	100.025241
750.000000	99.966495
749.000000	100.016764
748.000000	100.018314
747.000000	100.009158
746.000000	100.009602
745.000000	100.005410
744.000000	100.025738
743.000000	100.024973
742.000000	99.980996
741.000000	99.972926
740.000000	100.032508
739.000000	99.993586
738.000000	100.002102
737.000000	100.018591
736.000000	99.999004
735.000000	99.982064
734.000000	100.014506
733.000000	100.007865
732.000000	99.982601
731.000000	100.017074
730.000000	100.024398
729.000000	100.026629
728.000000	100.021416
727.000000	99.975695
726.000000	99.983125
725.000000	100.027655
724.000000	99.994446
723.000000	100.017441
722.000000	100.013001
721.000000	100.020122
720.000000	100.010008
719.000000	100.011901
718.000000	100.033935
717.000000	100.011463
716.000000	100.013246
715.000000	99.994434
714.000000	99.995657
713.000000	100.009915
712.000000	99.973704
711.000000	100.000780
710.000000	99.987292
709.000000	100.019293
708.000000	100.015840
707.000000	100.015063
706.000000	99.998214
705.000000	99.996985
704.000000	100.014855
703.000000	100.006702
702.000000	99.983580
701.000000	99.982908
700.000000	99.993854
699.000000	99.990499
698.000000	100.020465
697.000000	100.050341
696.000000	100.046436
695.000000	100.006939
694.000000	99.994963
693.000000	100.025191
692.000000	100.029787
691.000000	100.009632
690.000000	100.010640
689.000000	100.012435
688.000000	100.000896
687.000000	99.980840
686.000000	100.000673
685.000000	100.000336
684.000000	99.994169
683.000000	99.982168
682.000000	99.990128
681.000000	99.978571
680.000000	99.995623
679.000000	100.024590
678.000000	100.026953
677.000000	100.011006
676.000000	100.003483
675.000000	100.001910
674.000000	100.012024
673.000000	99.998988
672.000000	100.017764
671.000000	100.035201
670.000000	100.006299
669.000000	100.005962
668.000000	100.017102
667.000000	100.013956
666.000000	100.000563
665.000000	100.008781
664.000000	100.004166
663.000000	100.005292
662.000000	99.998874
661.000000	100.005746
660.000000	100.017466
659.000000	100.020512
658.000000	100.023561
657.000000	100.010598
656.000000	100.003721
655.000000	99.986355
654.000000	99.988382
653.000000	100.013200
652.000000	100.022681
651.000000	100.016252
650.000000	100.001806
649.000000	99.990857
648.000000	99.997065
647.000000	100.010728
646.000000	100.017056
645.000000	100.004857
644.000000	99.999096
643.000000	100.016385
642.000000	99.984972
641.000000	99.978075
640.000000	100.021933
639.000000	100.015717
638.000000	100.002601
637.000000	99.993780
636.000000	99.993553
635.000000	100.013010
634.000000	100.009957
633.000000	100.033385
632.000000	100.029883
631.000000	100.007810
630.000000	99.996717
629.000000	100.002378
628.000000	100.006681
627.000000	100.008835
626.000000	99.998981
625.000000	99.995016
624.000000	100.009857
623.000000	100.004872
622.000000	100.001473
621.000000	100.004647
620.000000	100.024260
619.000000	100.026190
618.000000	99.987643
617.000000	99.985599
616.000000	100.001701
615.000000	100.007486
614.000000	100.000681
613.000000	100.005106
612.000000	100.005901
611.000000	100.008513
610.000000	100.014189
609.000000	100.023501
608.000000	100.002157
607.000000	99.977292
606.000000	100.000795
605.000000	100.004657
604.000000	100.007952
603.000000	100.005794
602.000000	100.011364
601.000000	100.007388
600.000000	100.008980
599.000000	99.999204
598.000000	100.015350
597.000000	100.005345
596.000000	100.005346
595.000000	100.007736
594.000000	100.026853
593.000000	100.022987
592.000000	100.011154
591.000000	99.998520
590.000000	99.995446
589.000000	100.002733
588.000000	99.992938
587.000000	100.001139
586.000000	100.012419
585.000000	100.011283
584.000000	100.013450
583.000000	100.016644
582.000000	100.019158
581.000000	100.015624
580.000000	100.007871
579.000000	100.014832
578.000000	100.021909
577.000000	100.018030
576.000000	99.996348
575.000000	99.996119
574.000000	99.991894
573.000000	100.001142
572.000000	100.001713
571.000000	100.009712
570.000000	100.014969
569.000000	100.016688
568.000000	100.008687
567.000000	100.022521
566.000000	100.028814
565.000000	100.009378
564.000000	100.025166
563.000000	100.007780
562.000000	100.001029
561.000000	100.003087
560.000000	100.005032
559.000000	100.000458
558.000000	100.013616
557.000000	99.988099
556.000000	100.000114
555.000000	100.008129
554.000000	100.001489
553.000000	99.989463
552.000000	99.999084
551.000000	99.993812
550.000000	100.000344
549.000000	100.006075
548.000000	100.017889
547.000000	100.029708
546.000000	99.990938
545.000000	99.997705
544.000000	100.012397
543.000000	99.999426
542.000000	100.003445
541.000000	100.010224
540.000000	99.990923
539.000000	100.022531
538.000000	100.008049
537.000000	99.968721
536.000000	100.004257
535.000000	100.006791
534.000000	99.995740
533.000000	100.017855
532.000000	100.009449
531.000000	100.011067
530.000000	99.994464
529.000000	99.997116
528.000000	100.022745
527.000000	100.023335
526.000000	100.014561
525.000000	100.012141
524.000000	100.010644
523.000000	100.016209
522.000000	100.013092
521.000000	100.000000
520.000000	100.011138
519.000000	100.029031
518.000000	100.009529
517.000000	100.001861
516.000000	100.015482
515.000000	100.024700
514.000000	100.012709
513.000000	100.007935
512.000000	100.005372
511.000000	100.014960
510.000000	100.011227
509.000000	99.999532
508.000000	100.001990
507.000000	100.013703
506.000000	100.001640
505.000000	100.021326
504.000000	99.998242
503.000000	100.011718
502.000000	99.991446
501.000000	100.021207
500.000000	99.999766
499.000000	99.981147
498.000000	100.022363
497.000000	100.008543
496.000000	100.022700
495.000000	100.010175
494.000000	99.997311
493.000000	100.005610
492.000000	99.992873
491.000000	99.991472
490.000000	99.993343
489.000000	100.010510
488.000000	100.024173
487.000000	100.005488
486.000000	100.011558
485.000000	100.000000
484.000000	100.018328
483.000000	99.976895
482.000000	99.997083
481.000000	99.994635
480.000000	100.024395
479.000000	100.009116
478.000000	100.035556
477.000000	100.011117
476.000000	99.996956
475.000000	100.004921
474.000000	99.995546
473.000000	100.006334
472.000000	100.015141
471.000000	100.029950
470.000000	100.019745
469.000000	100.001411
468.000000	100.006118
467.000000	99.994114
466.000000	99.994700
465.000000	100.020740
464.000000	99.997289
463.000000	99.997170
462.000000	99.992333
461.000000	100.011091
460.000000	100.009676
459.000000	99.999174
458.000000	99.983596
457.000000	99.983363
456.000000	100.000236
455.000000	100.004130
454.000000	100.022307
453.000000	99.995515
452.000000	100.000826
451.000000	100.004957
450.000000	100.001889
449.000000	100.011095
448.000000	100.030581
447.000000	99.976158
446.000000	99.988666
445.000000	100.014641
444.000000	100.012158
443.000000	99.968248
442.000000	99.972836
441.000000	99.998109
440.000000	100.002128
439.000000	100.000118
438.000000	99.984979
437.000000	99.996806
436.000000	100.008758
435.000000	100.028183
434.000000	100.004974
433.000000	100.004383
432.000000	100.000592
431.000000	99.994074
430.000000	99.977591
429.000000	99.977347
428.000000	99.993593
427.000000	99.989438
426.000000	99.999763
425.000000	100.032546
424.000000	100.019604
423.000000	100.010696
422.000000	99.990134
421.000000	100.012249
420.000000	99.987631
419.000000	99.992267
418.000000	100.002619
417.000000	100.012859
416.000000	99.998690
415.000000	99.991185
414.000000	100.007983
413.000000	100.010846
412.000000	100.020271
411.000000	100.011092
410.000000	100.001193
409.000000	100.000716
408.000000	100.021125
407.000000	100.005731
406.000000	99.991521
405.000000	99.983278
404.000000	99.993190
403.000000	99.980875
402.000000	99.997848
401.000000	99.981944
400.000000	99.994976
399.000000	99.996291
398.000000	100.015921
397.000000	100.017484
396.000000	99.999281
395.000000	100.015336
394.000000	100.003355
393.000000	99.983940
392.000000	99.983218
391.000000	99.985851
390.000000	100.006358
389.000000	100.024115
388.000000	100.042123
387.000000	100.004561
386.000000	99.993279
385.000000	100.031215
384.000000	100.040707
383.000000	100.003482
382.000000	99.973225
381.000000	99.989792
380.000000	99.979340
379.000000	99.954520
378.000000	99.964400
377.000000	99.980837
376.000000	99.966044
375.000000	99.994870
374.000000	100.053769
373.000000	100.079998
372.000000	100.039002
371.000000	99.994014
370.000000	99.986343
369.000000	100.025776
368.000000	100.034435
367.000000	100.000120
366.000000	99.923782
365.000000	99.943542
364.000000	100.014667
363.000000	100.022129
362.000000	100.020450
361.000000	100.005895
360.000000	100.013481
359.000000	100.013847
358.000000	99.983139
357.000000	99.980844
356.000000	99.995541
355.000000	100.005303
354.000000	100.013381
353.000000	99.987099
352.000000	99.969606
351.000000	99.986489
350.000000	99.984558
349.000000	99.980091
348.000000	99.996741
347.000000	100.022343
346.000000	100.018120
345.000000	99.986234
344.000000	99.992031
343.000000	100.002053
342.000000	100.008456
341.000000	100.002416
340.000000	99.981153
339.000000	99.979337
338.000000	100.010999
337.000000	99.997219
336.000000	100.006289
335.000000	100.002177
334.000000	99.988028
333.000000	100.003630
332.000000	99.983426
331.000000	99.965528
330.000000	100.057002
329.000000	100.063309
328.000000	99.999274
327.000000	100.065380
326.000000	100.053647
325.000000	99.997699
324.000000	99.959925
323.000000	99.949136
322.000000	99.970193
321.000000	100.010178
320.000000	99.996607
319.000000	99.961953
318.000000	99.957796
317.000000	99.973696
316.000000	99.965605
315.000000	99.943995
314.000000	99.955433
313.000000	99.972566
312.000000	100.002660
311.000000	99.944741
310.000000	99.962490
309.000000	99.964525
308.000000	100.005815
307.000000	100.006910
306.000000	99.979625
305.000000	99.949161
304.000000	99.955449
303.000000	99.972906
302.000000	99.966447
301.000000	99.977618
300.000000	100.004381
299.000000	99.953731
298.000000	99.976234
297.000000	99.972798
296.000000	99.989627
295.000000	99.973617
294.000000	99.949882
293.000000	99.949596
292.000000	99.973302
291.000000	99.953674
290.000000	99.965160
289.000000	99.944877
288.000000	99.962893
287.000000	99.955355
286.000000	99.975871
285.000000	99.981638
284.000000	99.973237
283.000000	99.984448
282.000000	99.938011
281.000000	99.945628
280.000000	99.957092
279.000000	99.965847
278.000000	99.965706
277.000000	99.947222
276.000000	99.939512
275.000000	99.954867
274.000000	99.978658
273.000000	99.963138
272.000000	99.954064
271.000000	99.952933
270.000000	99.937758
269.000000	99.949302
268.000000	99.959723
267.000000	99.950392
266.000000	99.942538
265.000000	99.934946
264.000000	99.906837
263.000000	99.944640
262.000000	99.938661
261.000000	99.956579
260.000000	99.949992
259.000000	99.948510
258.000000	99.947771
257.000000	99.937974
256.000000	99.931769
255.000000	99.973533
254.000000	99.958269
253.000000	99.944014
252.000000	99.948625
251.000000	99.935134
250.000000	99.949779
249.000000	99.931097
248.000000	99.966675
247.000000	99.923493
246.000000	99.962379
245.000000	99.941384
244.000000	99.937739
243.000000	99.944452
242.000000	99.927506
241.000000	99.937201
240.000000	99.915162
239.000000	99.925961
238.000000	99.954626
237.000000	99.916498
236.000000	99.955837
235.000000	99.903940
234.000000	99.902785
233.000000	99.898038
232.000000	99.922801
231.000000	99.922901
230.000000	99.920897
229.000000	99.914831
228.000000	99.917923
227.000000	99.933497
226.000000	99.915809
225.000000	99.898305
224.000000	99.892672
223.000000	99.896252
222.000000	99.898970
221.000000	99.917606
220.000000	99.923249
219.000000	99.904434
218.000000	99.891540
217.000000	99.896889
216.000000	99.873677
215.000000	99.859935
214.000000	99.886955
213.000000	99.891271
212.000000	99.904798
211.000000	99.889241
210.000000	99.864575
209.000000	99.852474
208.000000	99.869371
207.000000	99.866521
206.000000	99.846034
205.000000	99.856348
204.000000	99.847400
203.000000	99.829474
202.000000	99.845402
201.000000	99.846459
200.000000	99.851147
199.000000	99.864205
198.000000	99.842044
197.000000	99.824898
196.000000	99.767570
195.000000	99.742980
194.000000	99.707010
193.000000	99.657297
192.000000	99.561955
191.000000	99.521189
190.000000	99.299115
