PE UV       SUBTECH     SPECTRUM    ASCII       PEDS        4.00        
   -1
N2_4bar.Sample.Cycle5.ASC
26/05/13
17:25:06.00
26/05/13
17:25:06.00
Jinky Agarwala

190.000000
1
Lambda 850+
860L2410213
PerkinElmer UV WinLab 7.4.0.367 / 2.02.11 Lambda 800 UV/VIS, May 23 2018 11:23:04

0
0
1
0
0
UV/VIS
1
1
10
RBeamAtt,SBeamAtt,uv/vis detector
0
0
0
0
Fix
 
0
0.2
0
0
0
 
 
 
0
 
0
319.2
0
Front
100
 
S:100 R:100
 
0
0
0
 
0
 
 
 
0
 
 
0
0
0
0
0
 
 
 
 
0
0


0
0

0


#HDR
-1
-1
#GR
nm
%T
1.0
0.0
800.000000
-1.000000
611
8
100.331171
99.904359
#DATA
800.000000	100.004679
799.000000	99.995864
798.000000	99.991615
797.000000	100.008061
796.000000	99.982788
795.000000	100.005339
794.000000	99.904359
793.000000	99.942154
792.000000	99.946708
791.000000	99.940697
790.000000	99.996620
789.000000	99.964115
788.000000	99.987562
787.000000	99.962571
786.000000	99.951979
785.000000	99.953050
784.000000	99.955891
783.000000	99.948131
782.000000	99.992021
781.000000	99.991908
780.000000	99.966981
779.000000	99.997813
778.000000	99.985888
777.000000	99.984465
776.000000	100.030981
775.000000	99.990585
774.000000	99.976452
773.000000	99.992003
772.000000	99.983238
771.000000	99.961647
770.000000	99.988929
769.000000	100.049353
768.000000	99.996380
767.000000	100.005816
766.000000	99.986830
765.000000	99.983208
764.000000	100.001208
763.000000	99.968818
762.000000	99.974956
761.000000	99.961432
760.000000	100.010444
759.000000	99.958767
758.000000	99.963705
757.000000	99.973482
756.000000	99.967094
755.000000	99.966973
754.000000	99.997357
753.000000	99.994712
752.000000	100.004297
751.000000	99.980931
750.000000	99.935194
749.000000	99.972980
748.000000	100.017872
747.000000	99.981021
746.000000	99.976711
745.000000	99.961356
744.000000	100.021430
743.000000	100.011050
742.000000	99.952601
741.000000	99.933254
740.000000	99.963622
739.000000	99.953555
738.000000	99.992144
737.000000	99.966912
736.000000	99.967233
735.000000	99.955714
734.000000	99.926583
733.000000	99.983606
732.000000	99.966754
731.000000	99.991241
730.000000	99.969170
729.000000	100.014091
728.000000	100.002441
727.000000	99.962488
726.000000	99.952595
725.000000	99.985117
724.000000	99.974898
723.000000	99.946788
722.000000	99.951328
721.000000	99.956309
720.000000	99.972089
719.000000	99.972751
718.000000	99.996217
717.000000	99.996661
716.000000	99.983415
715.000000	99.939997
714.000000	99.958350
713.000000	99.974822
712.000000	99.959218
711.000000	99.953080
710.000000	99.964550
709.000000	99.975131
708.000000	99.982598
707.000000	99.969650
706.000000	99.984597
705.000000	100.011612
704.000000	100.007595
703.000000	99.977549
702.000000	99.972521
701.000000	99.944814
700.000000	99.950388
699.000000	99.948246
698.000000	99.967681
697.000000	99.985121
696.000000	99.999552
695.000000	99.980415
694.000000	99.989030
693.000000	99.976712
692.000000	99.956327
691.000000	99.966288
690.000000	99.970991
689.000000	99.983196
688.000000	99.986780
687.000000	99.955182
686.000000	99.955612
685.000000	99.956274
684.000000	99.969723
683.000000	99.952111
682.000000	99.962867
681.000000	99.968361
680.000000	99.974634
679.000000	99.983607
678.000000	99.985064
677.000000	99.972709
676.000000	99.974723
675.000000	99.968315
674.000000	99.969547
673.000000	99.989435
672.000000	99.994603
671.000000	99.987067
670.000000	99.968620
669.000000	99.970641
668.000000	99.978735
667.000000	99.987958
666.000000	99.990770
665.000000	99.982437
664.000000	99.976019
663.000000	99.959350
662.000000	99.959677
661.000000	99.980734
660.000000	99.983773
659.000000	99.980615
658.000000	99.982978
657.000000	99.974181
656.000000	99.961664
655.000000	99.964028
654.000000	99.969884
653.000000	99.977661
652.000000	99.983186
651.000000	99.979685
650.000000	99.975732
649.000000	99.958237
648.000000	99.957327
647.000000	99.975720
646.000000	99.980798
645.000000	99.964532
644.000000	99.957863
643.000000	99.973785
642.000000	99.960678
641.000000	99.956942
640.000000	99.965743
639.000000	99.975011
638.000000	99.970373
637.000000	99.973083
636.000000	99.978961
635.000000	99.982804
634.000000	99.978503
633.000000	99.987099
632.000000	99.992076
631.000000	99.979851
630.000000	99.971019
629.000000	99.965692
628.000000	99.949155
627.000000	99.965795
626.000000	99.973495
625.000000	99.960130
624.000000	99.968957
623.000000	99.962720
622.000000	99.962716
621.000000	99.953873
620.000000	99.962930
619.000000	99.962813
618.000000	99.948756
617.000000	99.944778
616.000000	99.942955
615.000000	99.947827
614.000000	99.959277
613.000000	99.963694
612.000000	99.973672
611.000000	99.981839
610.000000	99.985811
609.000000	99.990009
608.000000	99.964465
607.000000	99.954130
606.000000	99.976832
605.000000	99.978306
604.000000	99.952628
603.000000	99.946829
602.000000	99.984659
601.000000	99.988861
600.000000	99.968514
599.000000	99.979084
598.000000	99.973848
597.000000	99.972593
596.000000	99.982142
595.000000	99.968147
594.000000	99.985663
593.000000	99.955733
592.000000	99.969838
591.000000	99.975865
590.000000	99.962771
589.000000	99.955362
588.000000	99.971639
587.000000	99.948856
586.000000	99.960237
585.000000	99.971393
584.000000	99.963070
583.000000	99.968878
582.000000	99.985176
581.000000	99.964191
580.000000	99.976844
579.000000	99.997034
578.000000	99.973527
577.000000	99.960973
576.000000	99.968729
575.000000	99.978881
574.000000	99.971800
573.000000	99.967225
572.000000	99.962424
571.000000	99.993373
570.000000	99.961720
569.000000	99.985484
568.000000	99.978969
567.000000	99.987882
566.000000	99.978161
565.000000	99.973812
564.000000	99.971173
563.000000	99.975287
562.000000	99.969808
561.000000	99.963525
560.000000	99.972208
559.000000	99.973804
558.000000	99.956751
557.000000	99.962808
556.000000	99.957536
555.000000	99.972751
554.000000	99.970799
553.000000	99.966441
552.000000	99.965174
551.000000	99.977197
550.000000	99.967451
549.000000	99.956556
548.000000	99.973626
547.000000	99.980157
546.000000	99.977287
545.000000	99.977968
544.000000	99.979338
543.000000	99.967164
542.000000	99.954064
541.000000	99.968868
540.000000	99.965302
539.000000	99.971376
538.000000	99.959066
537.000000	99.962281
536.000000	99.979865
535.000000	99.975943
534.000000	99.965113
533.000000	99.978689
532.000000	99.965084
531.000000	99.962766
530.000000	99.970823
529.000000	99.960428
528.000000	99.979218
527.000000	99.985445
526.000000	99.965446
525.000000	99.982655
524.000000	99.980331
523.000000	99.977654
522.000000	99.977871
521.000000	99.970552
520.000000	99.977839
519.000000	99.985020
518.000000	99.954795
517.000000	99.959757
516.000000	99.983819
515.000000	99.985436
514.000000	99.970617
513.000000	99.969311
512.000000	99.983299
511.000000	99.973820
510.000000	99.976260
509.000000	99.983384
508.000000	99.961717
507.000000	99.961468
506.000000	99.963332
505.000000	99.982541
504.000000	99.969651
503.000000	99.968595
502.000000	99.976682
501.000000	99.970943
500.000000	99.960292
499.000000	99.962177
498.000000	99.978456
497.000000	99.969339
496.000000	99.972269
495.000000	99.963744
494.000000	99.982227
493.000000	99.965873
492.000000	99.949176
491.000000	99.967523
490.000000	99.968702
489.000000	99.975827
488.000000	99.988205
487.000000	99.992878
486.000000	100.004670
485.000000	99.968600
484.000000	99.982489
483.000000	99.959157
482.000000	99.957535
481.000000	99.951602
480.000000	99.973737
479.000000	99.965989
478.000000	99.973216
477.000000	99.962787
476.000000	99.966747
475.000000	99.963213
474.000000	99.955808
473.000000	99.977243
472.000000	99.961034
471.000000	99.985083
470.000000	99.993183
469.000000	99.963785
468.000000	99.963645
467.000000	99.967508
466.000000	99.961724
465.000000	99.981381
464.000000	99.976424
463.000000	99.975118
462.000000	99.969569
461.000000	100.001298
460.000000	99.954100
459.000000	99.966603
458.000000	99.958224
457.000000	99.950442
456.000000	99.967188
455.000000	99.953741
454.000000	99.973444
453.000000	99.969314
452.000000	99.962110
451.000000	99.968368
450.000000	99.989495
449.000000	99.980761
448.000000	99.984887
447.000000	99.954794
446.000000	99.972373
445.000000	99.958912
444.000000	99.966004
443.000000	99.955854
442.000000	99.959491
441.000000	99.978613
440.000000	100.007329
439.000000	99.972805
438.000000	99.980603
437.000000	99.971487
436.000000	99.968875
435.000000	99.982356
434.000000	99.939370
433.000000	99.966712
432.000000	99.958529
431.000000	99.971792
430.000000	99.951863
429.000000	99.962166
428.000000	99.967846
427.000000	99.966414
426.000000	99.953226
425.000000	99.972086
424.000000	99.957227
423.000000	99.962922
422.000000	99.965528
421.000000	99.981092
420.000000	99.953854
419.000000	99.950393
418.000000	99.966196
417.000000	99.985236
416.000000	99.981066
415.000000	99.973198
414.000000	99.971403
413.000000	99.968057
412.000000	99.988434
411.000000	99.980440
410.000000	99.974354
409.000000	99.962059
408.000000	99.964911
407.000000	99.985076
406.000000	99.974683
405.000000	99.965839
404.000000	99.953881
403.000000	99.962348
402.000000	99.966165
401.000000	99.954562
400.000000	99.986961
399.000000	99.966496
398.000000	99.990902
397.000000	99.998922
396.000000	99.982393
395.000000	99.994608
394.000000	99.991133
393.000000	99.978426
392.000000	99.949535
391.000000	99.956234
390.000000	99.966413
389.000000	99.969166
388.000000	99.983799
387.000000	99.975156
386.000000	99.971674
385.000000	99.974428
384.000000	99.971541
383.000000	99.958214
382.000000	99.933723
381.000000	99.938994
380.000000	99.964325
379.000000	99.965650
378.000000	99.983331
377.000000	99.976552
376.000000	99.940190
375.000000	99.993438
374.000000	100.055083
373.000000	100.044364
372.000000	99.992822
371.000000	99.967555
370.000000	99.959150
369.000000	99.985973
368.000000	100.000600
367.000000	99.960275
366.000000	99.935544
365.000000	99.974173
364.000000	100.000361
363.000000	100.000962
362.000000	99.983039
361.000000	99.945258
360.000000	99.979899
359.000000	100.004937
358.000000	99.983982
357.000000	100.006024
356.000000	99.990721
355.000000	99.974568
354.000000	99.960220
353.000000	99.976489
352.000000	99.970451
351.000000	99.950901
350.000000	99.943780
349.000000	99.948358
348.000000	100.010502
347.000000	100.030797
346.000000	100.007610
345.000000	99.962567
344.000000	99.927553
343.000000	99.948187
342.000000	99.990457
341.000000	99.997946
340.000000	99.961340
339.000000	99.977887
338.000000	100.014262
337.000000	100.028291
336.000000	100.030961
335.000000	100.002782
334.000000	99.983432
333.000000	100.024439
332.000000	99.998064
331.000000	99.939159
330.000000	99.957884
329.000000	99.953032
328.000000	99.951590
327.000000	100.001816
326.000000	100.013200
325.000000	99.988374
324.000000	99.966705
323.000000	99.974447
322.000000	100.021931
321.000000	99.994911
320.000000	99.988610
319.000000	99.981399
318.000000	99.963464
317.000000	99.999517
316.000000	99.976587
315.000000	99.923355
314.000000	99.950601
313.000000	99.954921
312.000000	99.960579
311.000000	99.909917
310.000000	99.932724
309.000000	99.962830
308.000000	99.970803
307.000000	99.988361
306.000000	99.974046
305.000000	99.970516
304.000000	99.923280
303.000000	99.958569
302.000000	99.972768
301.000000	99.960102
300.000000	99.963124
299.000000	99.967368
298.000000	99.967946
297.000000	99.964992
296.000000	99.959482
295.000000	99.951264
294.000000	99.961495
293.000000	99.950207
292.000000	99.977711
291.000000	99.951100
290.000000	99.972153
289.000000	99.944877
288.000000	99.951466
287.000000	99.956954
286.000000	99.980672
285.000000	99.986937
284.000000	99.978294
283.000000	100.003086
282.000000	99.980613
281.000000	99.957244
280.000000	99.958205
279.000000	99.970797
278.000000	99.947012
277.000000	99.972124
276.000000	99.957981
275.000000	99.963919
274.000000	99.989577
273.000000	99.983493
272.000000	99.963624
271.000000	99.949953
270.000000	99.954654
269.000000	99.970675
268.000000	99.979364
267.000000	99.977745
266.000000	99.978483
265.000000	99.973506
264.000000	99.937933
263.000000	99.960564
262.000000	99.988056
261.000000	100.011322
260.000000	99.988555
259.000000	99.971145
258.000000	99.994653
257.000000	99.956867
256.000000	99.984216
255.000000	100.001243
254.000000	99.985966
253.000000	99.968469
252.000000	99.976794
251.000000	99.964280
250.000000	99.989460
249.000000	99.988227
248.000000	99.989965
247.000000	99.969050
246.000000	99.997525
245.000000	99.986397
244.000000	99.975417
243.000000	99.976793
242.000000	99.995438
241.000000	99.994582
240.000000	99.975778
239.000000	99.986985
238.000000	99.978049
237.000000	99.966819
236.000000	99.993761
235.000000	99.993889
234.000000	99.985344
233.000000	99.970816
232.000000	99.992305
231.000000	99.990592
230.000000	99.979949
229.000000	99.973935
228.000000	99.967047
227.000000	99.994479
226.000000	99.988447
225.000000	99.976977
224.000000	99.981495
223.000000	99.994930
222.000000	99.997645
221.000000	100.006089
220.000000	100.016198
219.000000	100.010369
218.000000	99.999123
217.000000	100.009419
216.000000	100.014862
215.000000	99.992170
214.000000	100.008238
213.000000	100.035989
212.000000	100.028586
211.000000	100.038670
210.000000	100.021714
209.000000	100.019601
208.000000	100.039228
207.000000	100.040291
206.000000	100.028706
205.000000	100.017563
204.000000	100.042264
203.000000	100.034793
202.000000	100.034725
201.000000	100.048994
200.000000	100.065005
199.000000	100.046616
198.000000	100.091576
197.000000	100.110319
196.000000	100.078606
195.000000	100.077594
194.000000	100.118087
193.000000	100.119535
192.000000	100.145392
191.000000	100.194617
190.000000	100.331171
