PE UV       SUBTECH     SPECTRUM    ASCII       PEDS        4.00        
   -1
N2_4bar.Sample.Cycle2.ASC
26/05/13
17:25:06.00
26/05/13
17:25:06.00
Jinky Agarwala

190.000000
1
Lambda 850+
860L2410213
PerkinElmer UV WinLab 7.4.0.367 / 2.02.11 Lambda 800 UV/VIS, May 23 2018 11:23:04

0
0
1
0
0
UV/VIS
1
1
10
RBeamAtt,SBeamAtt,uv/vis detector
0
0
0
0
Fix
 
0
0.2
0
0
0
 
 
 
0
 
0
319.2
0
Front
100
 
S:100 R:100
 
0
0
0
 
0
 
 
 
0
 
 
0
0
0
0
0
 
 
 
 
0
0


0
0

0


#HDR
-1
-1
#GR
nm
%T
1.0
0.0
800.000000
-1.000000
611
8
100.372881
99.912172
#DATA
800.000000	99.976931
799.000000	99.980515
798.000000	100.018077
797.000000	100.037037
796.000000	99.980610
795.000000	100.007301
794.000000	99.940742
793.000000	99.969389
792.000000	99.919899
791.000000	99.977544
790.000000	99.965870
789.000000	99.971204
788.000000	99.968141
787.000000	99.980685
786.000000	99.971187
785.000000	99.981984
784.000000	99.947266
783.000000	99.925963
782.000000	100.011477
781.000000	100.029417
780.000000	99.972010
779.000000	99.986550
778.000000	99.987310
777.000000	100.000766
776.000000	100.005255
775.000000	100.003722
774.000000	100.034391
773.000000	99.994851
772.000000	99.962093
771.000000	99.964167
770.000000	99.941027
769.000000	99.995942
768.000000	99.940002
767.000000	99.972239
766.000000	99.968941
765.000000	99.984964
764.000000	99.997694
763.000000	99.935660
762.000000	99.972210
761.000000	99.927260
760.000000	100.001209
759.000000	99.996591
758.000000	99.955677
757.000000	99.969631
756.000000	99.943103
755.000000	99.990642
754.000000	99.977536
753.000000	99.967393
752.000000	99.951412
751.000000	99.983025
750.000000	99.963849
749.000000	99.978935
748.000000	99.960063
747.000000	99.979256
746.000000	99.994812
745.000000	99.981782
744.000000	99.984756
743.000000	99.970055
742.000000	99.953043
741.000000	99.933033
740.000000	99.957319
739.000000	99.933208
738.000000	99.962161
737.000000	99.936923
736.000000	99.925056
735.000000	99.941875
734.000000	99.947955
733.000000	99.968984
732.000000	99.946807
731.000000	99.965741
730.000000	99.954420
729.000000	99.986353
728.000000	99.973146
727.000000	99.966595
726.000000	99.953150
725.000000	99.972234
724.000000	99.960570
723.000000	99.958563
722.000000	99.967774
721.000000	99.985325
720.000000	99.965195
719.000000	99.961073
718.000000	99.983088
717.000000	99.973068
716.000000	99.965940
715.000000	99.961816
714.000000	99.965032
713.000000	99.979167
712.000000	99.964121
711.000000	99.950963
710.000000	99.950392
709.000000	99.975242
708.000000	99.963747
707.000000	99.986722
706.000000	100.003572
705.000000	99.994082
704.000000	99.989389
703.000000	99.969172
702.000000	99.947164
701.000000	99.938558
700.000000	99.951058
699.000000	99.943439
698.000000	99.971483
697.000000	99.984115
696.000000	99.983663
695.000000	99.982541
694.000000	99.979739
693.000000	99.978279
692.000000	99.977380
691.000000	99.979728
690.000000	99.982751
689.000000	99.983980
688.000000	99.954066
687.000000	99.942185
686.000000	99.956061
685.000000	99.960423
684.000000	99.957500
683.000000	99.965905
682.000000	99.979919
681.000000	99.955795
680.000000	99.959257
679.000000	99.972378
678.000000	99.976416
677.000000	99.968890
676.000000	99.968432
675.000000	99.970449
674.000000	99.962018
673.000000	99.950546
672.000000	99.956377
671.000000	99.973121
670.000000	99.968058
669.000000	99.974915
668.000000	99.986611
667.000000	99.983343
666.000000	99.973322
665.000000	99.972418
664.000000	99.963859
663.000000	99.973538
662.000000	99.980965
661.000000	99.977129
660.000000	99.972167
659.000000	99.972163
658.000000	99.973621
657.000000	99.972264
656.000000	99.970120
655.000000	99.972260
654.000000	99.967403
653.000000	99.975292
652.000000	99.990747
651.000000	99.982394
650.000000	99.964445
649.000000	99.948304
648.000000	99.954053
647.000000	99.967815
646.000000	99.959790
645.000000	99.960240
644.000000	99.951989
643.000000	99.965536
642.000000	99.955142
641.000000	99.949257
640.000000	99.981006
639.000000	99.979534
638.000000	99.969016
637.000000	99.964149
636.000000	99.947629
635.000000	99.953050
634.000000	99.945918
633.000000	99.961183
632.000000	99.972381
631.000000	99.958118
630.000000	99.952906
629.000000	99.960143
628.000000	99.961385
627.000000	99.964775
626.000000	99.965000
625.000000	99.951748
624.000000	99.957627
623.000000	99.965666
622.000000	99.956030
621.000000	99.948093
620.000000	99.967351
619.000000	99.963493
618.000000	99.943428
617.000000	99.952035
616.000000	99.951914
615.000000	99.948394
614.000000	99.953605
613.000000	99.963240
612.000000	99.972197
611.000000	99.972192
610.000000	99.968898
609.000000	99.973206
608.000000	99.946868
607.000000	99.959693
606.000000	99.978081
605.000000	99.956954
604.000000	99.962853
603.000000	99.956259
602.000000	99.970567
601.000000	99.987611
600.000000	99.977380
599.000000	99.957144
598.000000	99.968504
597.000000	99.980781
596.000000	99.971108
595.000000	99.963255
594.000000	99.962793
593.000000	99.960058
592.000000	99.962440
591.000000	99.963001
590.000000	99.954460
589.000000	99.972101
588.000000	99.970386
587.000000	99.968676
586.000000	99.976074
585.000000	99.999886
584.000000	99.978571
583.000000	99.978568
582.000000	99.981184
581.000000	99.976279
580.000000	99.981635
579.000000	99.967711
578.000000	99.976037
577.000000	99.962685
576.000000	99.949783
575.000000	99.970661
574.000000	99.954104
573.000000	99.957289
572.000000	99.964137
571.000000	99.968578
570.000000	99.982174
569.000000	99.987998
568.000000	99.975082
567.000000	99.977707
566.000000	99.955064
565.000000	99.954370
564.000000	99.977465
563.000000	99.986042
562.000000	99.976327
561.000000	99.965354
560.000000	99.982959
559.000000	99.967970
558.000000	99.966934
557.000000	99.969674
556.000000	99.965777
555.000000	99.965653
554.000000	99.962326
553.000000	99.968502
552.000000	99.966205
551.000000	99.965624
550.000000	99.952323
549.000000	99.956327
548.000000	99.971218
547.000000	99.973504
546.000000	99.975566
545.000000	99.972920
544.000000	99.980945
543.000000	99.961998
542.000000	99.960036
541.000000	99.962320
540.000000	99.956685
539.000000	99.982412
538.000000	99.980913
537.000000	99.945836
536.000000	99.979174
535.000000	99.970648
534.000000	99.947152
533.000000	99.973390
532.000000	99.967850
531.000000	99.965532
530.000000	99.971746
529.000000	99.976003
528.000000	99.989262
527.000000	99.987986
526.000000	99.977118
525.000000	99.968779
524.000000	99.972000
523.000000	99.970129
522.000000	99.958407
521.000000	99.962321
520.000000	99.961827
519.000000	99.972246
518.000000	99.950030
517.000000	99.974179
516.000000	99.982655
515.000000	99.974950
514.000000	99.952078
513.000000	99.954959
512.000000	99.967299
511.000000	99.973352
510.000000	99.983744
509.000000	99.971098
508.000000	99.978576
507.000000	99.974819
506.000000	99.959583
505.000000	99.952193
504.000000	99.951488
503.000000	99.960040
502.000000	99.954419
501.000000	99.987698
500.000000	99.969428
499.000000	99.952575
498.000000	99.968387
497.000000	99.951317
496.000000	99.976481
495.000000	99.972983
494.000000	99.953112
493.000000	99.971132
492.000000	99.963547
491.000000	99.974532
490.000000	99.943127
489.000000	99.974776
488.000000	99.981549
487.000000	99.967541
486.000000	99.991594
485.000000	99.960429
484.000000	99.980738
483.000000	99.957407
482.000000	99.972234
481.000000	99.941573
480.000000	99.973621
479.000000	99.984222
478.000000	99.974736
477.000000	99.949915
476.000000	99.956209
475.000000	99.958761
474.000000	99.952643
473.000000	99.966685
472.000000	99.958804
471.000000	99.969697
470.000000	99.985662
469.000000	99.955672
468.000000	99.973646
467.000000	99.974925
466.000000	99.960193
465.000000	99.963587
464.000000	99.966993
463.000000	99.963326
462.000000	99.963907
461.000000	99.983835
460.000000	99.979351
459.000000	99.980528
458.000000	99.969907
457.000000	99.946666
456.000000	99.970847
455.000000	99.958697
454.000000	99.978283
453.000000	99.991266
452.000000	99.994098
451.000000	99.991620
450.000000	99.981941
449.000000	99.972735
448.000000	100.014287
447.000000	99.950309
446.000000	99.982054
445.000000	99.972844
444.000000	99.983356
443.000000	99.950661
442.000000	99.960199
441.000000	99.965851
440.000000	99.979667
439.000000	99.980609
438.000000	99.980012
437.000000	99.976338
436.000000	99.958342
435.000000	99.979870
434.000000	99.940081
433.000000	99.963632
432.000000	99.953790
431.000000	99.964443
430.000000	99.955301
429.000000	99.957066
428.000000	99.951354
427.000000	99.948969
426.000000	99.961655
425.000000	99.992279
424.000000	99.989426
423.000000	99.979203
422.000000	99.973017
421.000000	99.962422
420.000000	99.958968
419.000000	99.958482
418.000000	99.983455
417.000000	99.976783
416.000000	99.963204
415.000000	99.955092
414.000000	99.989872
413.000000	99.994279
412.000000	100.002146
411.000000	99.978771
410.000000	99.946562
409.000000	99.955735
408.000000	99.952975
407.000000	99.956063
406.000000	99.963935
405.000000	99.956044
404.000000	99.944921
403.000000	99.962946
402.000000	99.969274
401.000000	99.956356
400.000000	99.956216
399.000000	99.975470
398.000000	99.993296
397.000000	99.980600
396.000000	99.968260
395.000000	99.979273
394.000000	99.980468
393.000000	99.972314
392.000000	99.955529
391.000000	99.958392
390.000000	99.991363
389.000000	99.968686
388.000000	99.983079
387.000000	99.975276
386.000000	99.946469
385.000000	99.973708
384.000000	99.981148
383.000000	99.942604
382.000000	99.918955
381.000000	99.939474
380.000000	99.961682
379.000000	99.950690
378.000000	99.972378
377.000000	99.978337
376.000000	99.938045
375.000000	99.979599
374.000000	100.048033
373.000000	100.036352
372.000000	99.957887
371.000000	99.951152
370.000000	99.976999
369.000000	99.986093
368.000000	99.995321
367.000000	99.975157
366.000000	99.924142
365.000000	99.983303
364.000000	100.010219
363.000000	99.993626
362.000000	99.982798
361.000000	99.959575
360.000000	99.984232
359.000000	99.953522
358.000000	99.927379
357.000000	99.977229
356.000000	99.983130
355.000000	99.969024
354.000000	99.940571
353.000000	99.944537
352.000000	99.948982
351.000000	99.928825
350.000000	99.912172
349.000000	99.926277
348.000000	99.974771
347.000000	100.000121
346.000000	100.017033
345.000000	99.967518
344.000000	99.932865
343.000000	99.931158
342.000000	99.964728
341.000000	99.985866
340.000000	99.948534
339.000000	99.946228
338.000000	99.963135
337.000000	99.980777
336.000000	99.980408
335.000000	99.964079
334.000000	99.953924
333.000000	99.991652
332.000000	99.981370
331.000000	99.965890
330.000000	99.993949
329.000000	99.998547
328.000000	99.966597
327.000000	99.993946
326.000000	99.975175
325.000000	99.959794
324.000000	99.954113
323.000000	99.957977
322.000000	99.995759
321.000000	99.995759
320.000000	99.989701
319.000000	99.959175
318.000000	99.935247
317.000000	99.961148
316.000000	99.931452
315.000000	99.935908
314.000000	99.971617
313.000000	99.955767
312.000000	99.978234
311.000000	99.937002
310.000000	99.921350
309.000000	99.974453
308.000000	99.974195
307.000000	99.976844
306.000000	100.001819
305.000000	100.008008
304.000000	99.956299
303.000000	99.967317
302.000000	99.954898
301.000000	100.000122
300.000000	99.980527
299.000000	99.942042
298.000000	99.975746
297.000000	99.972189
296.000000	99.950451
295.000000	99.972640
294.000000	99.960028
293.000000	99.978468
292.000000	100.009307
291.000000	99.969974
290.000000	99.991167
289.000000	99.969922
288.000000	99.950606
287.000000	99.960521
286.000000	99.978456
285.000000	99.975970
284.000000	99.987420
283.000000	99.998889
282.000000	99.988146
281.000000	99.966512
280.000000	99.980092
279.000000	99.997896
278.000000	99.969916
277.000000	99.966797
276.000000	99.957485
275.000000	99.940361
274.000000	99.987468
273.000000	99.960035
272.000000	99.974425
271.000000	99.952809
270.000000	99.947075
269.000000	99.968935
268.000000	99.962706
267.000000	99.952630
266.000000	99.988806
265.000000	99.955221
264.000000	99.947386
263.000000	99.970019
262.000000	99.983079
261.000000	99.991166
260.000000	99.988307
259.000000	99.983085
258.000000	99.987440
257.000000	99.959726
256.000000	99.955756
255.000000	99.990308
254.000000	99.979135
253.000000	99.986965
252.000000	99.974312
251.000000	99.972590
250.000000	100.013516
249.000000	99.986864
248.000000	99.983523
247.000000	99.968679
246.000000	99.981561
245.000000	100.005688
244.000000	99.972328
243.000000	100.014689
242.000000	100.012082
241.000000	99.985101
240.000000	99.991639
239.000000	99.965006
238.000000	100.002943
237.000000	99.988613
236.000000	100.000245
235.000000	99.965169
234.000000	99.976917
233.000000	99.988155
232.000000	100.010138
231.000000	99.999267
230.000000	100.001834
229.000000	99.986539
228.000000	99.983585
227.000000	99.982577
226.000000	99.983408
225.000000	99.988919
224.000000	99.973353
223.000000	99.978484
222.000000	100.001240
221.000000	100.014167
220.000000	99.998380
219.000000	100.003498
218.000000	100.007890
217.000000	100.005652
216.000000	100.019899
215.000000	99.992170
214.000000	100.016348
213.000000	100.038532
212.000000	100.040455
211.000000	100.036621
210.000000	100.024027
209.000000	100.031465
208.000000	100.032884
207.000000	100.041200
206.000000	100.038491
205.000000	100.039714
204.000000	100.026991
203.000000	100.029766
202.000000	100.039381
201.000000	100.048592
200.000000	100.068235
199.000000	100.044184
198.000000	100.074643
197.000000	100.093107
196.000000	100.060852
195.000000	100.112396
194.000000	100.110664
193.000000	100.155652
192.000000	100.123384
191.000000	100.202748
190.000000	100.372881
