PE UV       SUBTECH     SPECTRUM    ASCII       PEDS        4.00        
   -1
N2_4bar.Sample.Cycle4.ASC
26/05/13
17:25:06.00
26/05/13
17:25:06.00
Jinky Agarwala

190.000000
1
Lambda 850+
860L2410213
PerkinElmer UV WinLab 7.4.0.367 / 2.02.11 Lambda 800 UV/VIS, May 23 2018 11:23:04

0
0
1
0
0
UV/VIS
1
1
10
RBeamAtt,SBeamAtt,uv/vis detector
0
0
0
0
Fix
 
0
0.2
0
0
0
 
 
 
0
 
0
319.2
0
Front
100
 
S:100 R:100
 
0
0
0
 
0
 
 
 
0
 
 
0
0
0
0
0
 
 
 
 
0
0


0
0

0


#HDR
-1
-1
#GR
nm
%T
1.0
0.0
800.000000
-1.000000
611
8
100.362718
99.919374
#DATA
800.000000	99.971925
799.000000	99.994884
798.000000	100.017968
797.000000	100.018083
796.000000	100.003377
795.000000	99.998366
794.000000	99.933226
793.000000	99.958386
792.000000	99.945183
791.000000	100.003815
790.000000	99.953003
789.000000	99.964442
788.000000	99.982761
787.000000	99.979594
786.000000	99.951215
785.000000	99.947700
784.000000	99.948139
783.000000	99.933716
782.000000	100.002733
781.000000	100.033354
780.000000	99.981194
779.000000	99.974412
778.000000	99.966962
777.000000	99.919374
776.000000	100.036345
775.000000	99.991461
774.000000	100.005805
773.000000	99.990031
772.000000	99.981595
771.000000	99.957483
770.000000	99.980817
769.000000	100.011735
768.000000	99.999671
767.000000	100.000658
766.000000	99.989135
765.000000	99.970367
764.000000	99.993631
763.000000	99.948067
762.000000	99.966938
761.000000	99.970333
760.000000	99.993844
759.000000	99.981858
758.000000	99.975694
757.000000	100.001981
756.000000	100.013206
755.000000	99.965432
754.000000	99.962010
753.000000	99.958140
752.000000	99.963642
751.000000	99.996032
750.000000	99.945333
749.000000	99.943533
748.000000	99.984224
747.000000	99.989297
746.000000	99.981126
745.000000	99.959479
744.000000	99.991605
743.000000	99.964972
742.000000	99.950502
741.000000	99.943642
740.000000	99.930782
739.000000	99.944377
738.000000	99.987940
737.000000	99.951751
736.000000	99.942325
735.000000	99.941653
734.000000	99.946515
733.000000	99.923346
732.000000	99.970189
731.000000	99.993126
730.000000	99.957415
729.000000	100.004549
728.000000	99.975033
727.000000	99.949725
726.000000	99.962254
725.000000	99.980897
724.000000	99.956682
723.000000	99.926570
722.000000	99.933103
721.000000	99.975320
720.000000	99.991438
719.000000	99.962852
718.000000	99.973075
717.000000	99.969730
716.000000	99.964716
715.000000	99.940331
714.000000	99.963696
713.000000	99.975602
712.000000	99.963230
711.000000	99.938258
710.000000	99.957638
709.000000	99.964425
708.000000	99.957723
707.000000	99.944880
706.000000	99.967184
705.000000	100.008597
704.000000	99.994415
703.000000	99.982687
702.000000	99.969058
701.000000	99.946378
700.000000	99.955305
699.000000	99.970155
698.000000	99.992060
697.000000	99.995301
696.000000	99.990713
695.000000	99.995523
694.000000	99.968882
693.000000	99.977832
692.000000	99.976596
691.000000	99.970992
690.000000	99.980847
689.000000	99.971321
688.000000	99.947120
687.000000	99.941848
686.000000	99.965252
685.000000	99.965917
684.000000	99.965798
683.000000	99.960746
682.000000	99.982051
681.000000	99.965668
680.000000	99.964196
679.000000	99.986414
678.000000	99.976641
677.000000	99.973158
676.000000	99.991799
675.000000	99.988876
674.000000	99.974941
673.000000	99.961561
672.000000	99.980550
671.000000	99.994602
670.000000	99.973231
669.000000	99.973565
668.000000	99.971871
667.000000	99.972314
666.000000	99.975348
665.000000	99.969716
664.000000	99.952037
663.000000	99.969371
662.000000	99.975558
661.000000	99.971946
660.000000	99.965631
659.000000	99.957286
658.000000	99.974184
657.000000	99.997407
656.000000	99.989514
655.000000	99.968764
654.000000	99.971125
653.000000	99.981723
652.000000	99.991311
651.000000	99.985667
650.000000	99.976974
649.000000	99.965912
648.000000	99.970196
647.000000	99.981818
646.000000	99.978088
645.000000	99.981701
644.000000	99.980683
643.000000	99.979660
642.000000	99.965650
641.000000	99.966209
640.000000	99.982024
639.000000	99.977273
638.000000	99.967659
637.000000	99.961434
636.000000	99.954755
635.000000	99.965268
634.000000	99.961305
633.000000	99.980082
632.000000	99.991737
631.000000	99.980530
630.000000	99.979283
629.000000	99.983242
628.000000	99.971237
627.000000	99.970325
626.000000	99.965453
625.000000	99.960130
624.000000	99.968844
623.000000	99.967592
622.000000	99.956143
621.000000	99.943899
620.000000	99.965878
619.000000	99.974831
618.000000	99.950570
617.000000	99.954757
616.000000	99.966204
615.000000	99.964953
614.000000	99.968125
613.000000	99.967325
612.000000	99.969586
611.000000	99.979115
610.000000	99.970033
609.000000	99.988420
608.000000	99.966054
607.000000	99.967073
606.000000	99.965362
605.000000	99.966608
604.000000	99.968987
603.000000	99.969665
602.000000	99.975227
601.000000	99.958742
600.000000	99.953624
599.000000	99.977720
598.000000	99.979306
597.000000	99.965656
596.000000	99.979525
595.000000	99.963028
594.000000	99.959038
593.000000	99.961309
592.000000	99.968472
591.000000	99.982810
590.000000	99.973245
589.000000	99.957639
588.000000	99.955010
587.000000	99.948856
586.000000	99.967871
585.000000	99.989743
584.000000	99.988830
583.000000	99.966483
582.000000	99.984719
581.000000	99.970919
580.000000	99.983802
579.000000	99.983114
578.000000	99.971359
577.000000	99.965652
576.000000	99.958571
575.000000	99.976141
574.000000	99.957871
573.000000	99.960144
572.000000	99.947805
571.000000	99.985946
570.000000	99.990287
569.000000	100.004801
568.000000	99.975883
567.000000	99.986167
566.000000	99.963869
565.000000	99.956886
564.000000	99.975863
563.000000	99.979749
562.000000	99.961802
561.000000	99.949232
560.000000	99.966261
559.000000	99.984671
558.000000	99.988673
557.000000	99.966470
556.000000	99.970813
555.000000	99.985803
554.000000	99.969540
553.000000	99.970335
552.000000	99.963570
551.000000	99.973186
550.000000	99.958512
549.000000	99.961714
548.000000	99.992776
547.000000	99.966392
546.000000	99.946085
545.000000	99.953298
544.000000	99.967514
543.000000	99.970264
542.000000	99.971635
541.000000	99.977369
540.000000	99.957374
539.000000	99.993448
538.000000	99.960561
537.000000	99.948826
536.000000	99.972271
535.000000	99.973871
534.000000	99.972021
533.000000	99.973851
532.000000	99.984443
531.000000	99.970835
530.000000	99.966210
529.000000	99.945083
528.000000	99.984413
527.000000	99.983365
526.000000	99.966833
525.000000	99.977452
524.000000	99.964017
523.000000	99.967118
522.000000	99.968487
521.000000	99.970088
520.000000	99.967745
519.000000	99.985136
518.000000	99.977920
517.000000	99.984182
516.000000	99.986846
515.000000	99.986485
514.000000	99.960124
513.000000	99.965461
512.000000	99.971387
511.000000	99.993104
510.000000	99.986551
509.000000	99.964311
508.000000	99.957152
507.000000	99.970369
506.000000	99.963566
505.000000	99.981604
504.000000	99.968831
503.000000	99.956408
502.000000	99.972230
501.000000	99.984651
500.000000	99.977862
499.000000	99.943441
498.000000	99.977871
497.000000	99.969339
496.000000	99.981981
495.000000	99.965264
494.000000	99.977667
493.000000	99.948108
492.000000	99.950812
491.000000	99.950816
490.000000	99.962046
489.000000	99.976177
488.000000	99.981315
487.000000	99.978750
486.000000	99.986107
485.000000	99.977355
484.000000	99.992645
483.000000	99.963358
482.000000	99.966051
481.000000	99.949153
480.000000	99.950977
479.000000	99.962717
478.000000	99.977543
477.000000	99.956702
476.000000	99.965225
475.000000	99.958410
474.000000	99.950885
473.000000	99.954720
472.000000	99.971010
471.000000	99.984026
470.000000	99.984016
469.000000	99.984950
468.000000	99.974469
467.000000	99.978810
466.000000	99.960899
465.000000	99.977139
464.000000	99.972534
463.000000	99.974529
462.000000	99.949281
461.000000	99.988201
460.000000	99.972035
459.000000	99.981826
458.000000	99.976044
457.000000	99.941710
456.000000	99.972972
455.000000	99.964007
454.000000	99.976159
453.000000	99.974743
452.000000	100.004013
451.000000	99.980997
450.000000	99.987724
449.000000	99.968958
448.000000	99.992561
447.000000	99.955974
446.000000	99.967532
445.000000	99.982408
444.000000	100.010388
443.000000	99.971081
442.000000	99.961616
441.000000	99.974832
440.000000	99.979430
439.000000	99.971268
438.000000	99.979775
437.000000	99.959419
436.000000	99.974319
435.000000	100.009355
434.000000	99.982711
433.000000	99.979032
432.000000	99.963269
431.000000	99.962665
430.000000	99.953286
429.000000	99.958252
428.000000	99.966778
427.000000	99.946120
426.000000	99.946103
425.000000	99.988241
424.000000	99.973386
423.000000	99.962328
422.000000	99.969570
421.000000	99.983589
420.000000	99.984895
419.000000	99.954318
418.000000	99.965244
417.000000	99.978807
416.000000	99.967967
415.000000	99.961882
414.000000	99.955675
413.000000	99.969726
412.000000	99.985095
411.000000	99.972688
410.000000	99.956343
409.000000	99.961462
408.000000	99.956914
407.000000	99.969555
406.000000	99.960352
405.000000	99.950311
404.000000	99.940619
403.000000	99.957209
402.000000	99.953373
401.000000	99.940931
400.000000	99.977032
399.000000	99.970325
398.000000	99.999761
397.000000	99.999521
396.000000	99.977842
395.000000	99.990175
394.000000	99.976513
393.000000	99.981543
392.000000	99.970392
391.000000	99.953716
390.000000	99.980088
389.000000	99.987283
388.000000	99.983679
387.000000	99.970355
386.000000	99.953791
385.000000	99.971306
384.000000	99.983669
383.000000	99.968901
382.000000	99.953895
381.000000	99.943797
380.000000	99.953154
379.000000	99.950570
378.000000	99.943684
377.000000	99.984645
376.000000	99.959253
375.000000	100.000477
374.000000	100.062252
373.000000	100.014589
372.000000	99.970330
371.000000	99.965759
370.000000	99.954358
369.000000	99.954082
368.000000	99.987522
367.000000	99.962555
366.000000	99.922821
365.000000	99.982942
364.000000	100.014787
363.000000	99.984967
362.000000	99.981354
361.000000	99.993503
360.000000	99.993380
359.000000	99.989284
358.000000	99.980370
357.000000	99.983374
356.000000	99.972526
355.000000	99.950583
354.000000	99.933338
353.000000	99.956594
352.000000	99.985165
351.000000	99.977682
350.000000	99.944625
349.000000	99.933034
348.000000	99.963907
347.000000	100.008575
346.000000	100.017516
345.000000	99.959790
344.000000	99.922119
343.000000	99.954709
342.000000	99.993719
341.000000	99.967625
340.000000	99.946118
339.000000	99.960003
338.000000	99.934610
337.000000	99.989240
336.000000	100.041120
335.000000	100.009918
334.000000	100.000363
333.000000	100.022866
332.000000	99.989475
331.000000	99.957182
330.000000	99.979668
329.000000	99.974337
328.000000	99.967565
327.000000	100.033780
326.000000	100.029548
325.000000	99.984862
324.000000	99.921060
323.000000	99.941749
322.000000	100.006058
321.000000	99.980855
320.000000	99.950442
319.000000	99.961107
318.000000	99.981069
317.000000	100.005912
316.000000	99.997948
315.000000	99.947858
314.000000	99.940818
313.000000	99.942835
312.000000	100.003265
311.000000	99.927692
310.000000	99.945913
309.000000	99.960045
308.000000	99.980859
307.000000	100.010184
306.000000	100.001698
305.000000	99.972821
304.000000	99.968560
303.000000	99.993075
302.000000	99.982737
301.000000	99.962900
300.000000	99.949128
299.000000	99.945208
298.000000	99.980012
297.000000	99.982801
296.000000	99.971442
295.000000	99.974105
294.000000	99.950249
293.000000	99.961952
292.000000	100.010165
291.000000	99.977818
290.000000	99.951666
289.000000	99.944141
288.000000	99.940653
287.000000	99.975771
286.000000	99.983750
285.000000	99.989895
284.000000	99.985447
283.000000	100.003950
282.000000	99.956287
281.000000	99.965894
280.000000	99.977495
279.000000	99.959412
278.000000	99.961125
277.000000	99.978319
276.000000	99.969508
275.000000	99.960199
274.000000	100.005584
273.000000	99.992677
272.000000	99.941276
271.000000	99.955541
270.000000	99.956269
269.000000	99.934764
268.000000	99.979240
267.000000	99.978118
266.000000	99.984329
265.000000	99.959450
264.000000	99.968780
263.000000	99.982459
262.000000	99.998134
261.000000	99.978849
260.000000	99.987560
259.000000	99.999627
258.000000	99.987813
257.000000	99.968054
256.000000	99.989312
255.000000	99.986207
254.000000	99.972925
253.000000	99.986717
252.000000	100.002482
251.000000	99.974698
250.000000	99.987972
249.000000	99.970010
248.000000	99.996531
247.000000	99.982916
246.000000	99.999010
245.000000	99.980956
244.000000	99.982582
243.000000	99.991730
242.000000	99.987425
241.000000	99.968108
240.000000	99.999631
239.000000	99.996071
238.000000	100.018150
237.000000	99.990327
236.000000	99.998043
235.000000	99.994989
234.000000	99.992306
233.000000	99.975089
232.000000	99.999145
231.000000	99.981672
230.000000	99.989241
229.000000	100.002570
228.000000	99.990690
227.000000	99.991534
226.000000	100.001844
225.000000	99.978578
224.000000	99.961263
223.000000	99.997032
222.000000	100.033098
221.000000	100.017026
220.000000	100.001620
219.000000	100.015241
218.000000	100.010646
217.000000	100.006908
216.000000	100.005164
215.000000	99.993054
214.000000	100.018376
213.000000	100.046417
212.000000	100.045942
211.000000	100.040590
210.000000	100.045227
209.000000	100.025147
208.000000	100.045701
207.000000	100.037431
206.000000	100.024661
205.000000	100.036437
204.000000	100.050033
203.000000	100.032015
202.000000	100.023416
201.000000	100.057293
200.000000	100.070523
199.000000	100.049454
198.000000	100.081416
197.000000	100.096225
196.000000	100.049332
195.000000	100.060802
194.000000	100.107965
193.000000	100.158751
192.000000	100.135655
191.000000	100.216345
190.000000	100.362718
