PE UV       SUBTECH     SPECTRUM    ASCII       PEDS        4.00        
   -1
N2_4bar.Sample.Cycle8.ASC
26/05/13
17:25:06.00
26/05/13
17:25:06.00
Jinky Agarwala

190.000000
1
Lambda 850+
860L2410213
PerkinElmer UV WinLab 7.4.0.367 / 2.02.11 Lambda 800 UV/VIS, May 23 2018 11:23:04

0
0
1
0
0
UV/VIS
1
1
10
RBeamAtt,SBeamAtt,uv/vis detector
0
0
0
0
Fix
 
0
0.2
0
0
0
 
 
 
0
 
0
319.2
0
Front
100
 
S:100 R:100
 
0
0
0
 
0
 
 
 
0
 
 
0
0
0
0
0
 
 
 
 
0
0


0
0

0


#HDR
-1
-1
#GR
nm
%T
1.0
0.0
800.000000
-1.000000
611
8
100.366018
99.918355
#DATA
800.000000	99.972143
799.000000	99.990421
798.000000	99.985299
797.000000	100.015904
796.000000	100.035513
795.000000	99.991937
794.000000	99.950981
793.000000	99.940520
792.000000	99.955209
791.000000	99.970131
790.000000	99.948205
789.000000	99.973495
788.000000	99.966723
787.000000	99.983522
786.000000	99.986248
785.000000	99.958400
784.000000	99.930889
783.000000	99.922250
782.000000	100.045360
781.000000	100.023621
780.000000	99.953642
779.000000	99.969382
778.000000	99.981840
777.000000	99.962039
776.000000	100.005474
775.000000	99.963544
774.000000	99.970757
773.000000	100.040204
772.000000	99.977322
771.000000	99.969318
770.000000	99.955606
769.000000	99.966440
768.000000	99.954481
767.000000	99.949526
766.000000	99.963782
765.000000	99.979257
764.000000	99.979905
763.000000	99.941589
762.000000	99.979240
761.000000	99.961213
760.000000	99.981091
759.000000	99.955689
758.000000	99.981083
757.000000	99.995819
756.000000	99.963683
755.000000	99.968515
754.000000	99.978858
753.000000	99.975655
752.000000	99.963531
751.000000	99.972664
750.000000	99.927148
749.000000	99.986655
748.000000	99.998235
747.000000	99.993600
746.000000	99.959604
745.000000	99.980788
744.000000	100.003866
743.000000	100.017680
742.000000	99.958015
741.000000	99.941321
740.000000	99.971141
739.000000	99.947584
738.000000	99.957403
737.000000	99.977314
736.000000	99.960923
735.000000	99.947964
734.000000	99.940203
733.000000	99.963113
732.000000	100.004654
731.000000	99.981595
730.000000	99.981813
729.000000	100.020527
728.000000	99.995783
727.000000	99.979247
726.000000	99.962809
725.000000	99.970901
724.000000	99.970233
723.000000	99.961007
722.000000	99.950105
721.000000	99.987215
720.000000	99.981541
719.000000	99.975420
718.000000	99.986092
717.000000	99.981415
716.000000	99.988313
715.000000	99.960146
714.000000	99.966703
713.000000	99.975713
712.000000	99.954316
711.000000	99.947619
710.000000	99.948720
709.000000	99.953272
708.000000	99.964081
707.000000	99.977461
706.000000	99.977676
705.000000	100.000558
704.000000	100.010052
703.000000	99.983469
702.000000	99.952191
701.000000	99.934648
700.000000	99.937985
699.000000	99.947128
698.000000	99.960748
697.000000	99.988366
696.000000	99.980642
695.000000	99.967881
694.000000	99.976045
693.000000	99.979623
692.000000	99.971893
691.000000	99.967632
690.000000	99.970655
689.000000	99.984316
688.000000	99.963029
687.000000	99.932100
686.000000	99.944740
685.000000	99.979483
684.000000	99.958958
683.000000	99.945830
682.000000	99.984631
681.000000	99.962639
680.000000	99.964645
679.000000	99.971256
678.000000	99.966197
677.000000	99.970463
676.000000	99.969668
675.000000	99.977528
674.000000	99.991572
673.000000	99.980556
672.000000	99.984372
671.000000	99.987966
670.000000	99.987290
669.000000	99.980764
668.000000	99.967033
667.000000	99.983343
666.000000	99.987843
665.000000	99.974782
664.000000	99.962508
663.000000	99.971849
662.000000	99.986146
661.000000	99.992564
660.000000	99.983999
659.000000	99.973853
658.000000	99.981850
657.000000	99.993122
656.000000	99.974856
655.000000	99.952977
654.000000	99.964019
653.000000	99.977435
652.000000	99.998759
651.000000	100.006997
650.000000	99.981376
649.000000	99.961172
648.000000	99.968503
647.000000	99.983061
646.000000	99.980121
645.000000	99.968485
644.000000	99.966562
643.000000	99.973107
642.000000	99.943503
641.000000	99.950500
640.000000	99.978745
639.000000	99.962347
638.000000	99.953863
637.000000	99.974893
636.000000	99.959619
635.000000	99.963232
634.000000	99.969225
633.000000	99.978045
632.000000	99.974418
631.000000	99.973060
630.000000	99.973510
629.000000	99.974297
628.000000	99.963423
627.000000	99.975535
626.000000	99.981990
625.000000	99.955146
624.000000	99.965671
623.000000	99.972805
622.000000	99.971102
621.000000	99.965319
620.000000	99.983109
619.000000	99.976418
618.000000	99.966329
617.000000	99.976755
616.000000	99.962575
615.000000	99.944084
614.000000	99.965062
613.000000	99.962446
612.000000	99.965615
611.000000	99.979910
610.000000	99.983314
609.000000	99.985581
608.000000	99.970141
607.000000	99.965257
606.000000	99.969677
605.000000	99.967062
604.000000	99.976371
603.000000	99.965121
602.000000	99.968749
601.000000	99.983520
600.000000	99.979767
599.000000	99.966011
598.000000	99.968959
597.000000	99.972365
596.000000	99.989308
595.000000	99.977248
594.000000	99.963134
593.000000	99.964723
592.000000	99.967448
591.000000	99.964140
590.000000	99.954688
589.000000	99.952856
588.000000	99.968678
587.000000	99.971637
586.000000	99.963313
585.000000	99.974584
584.000000	99.960334
583.000000	99.957135
582.000000	99.971377
581.000000	99.966586
580.000000	99.989620
579.000000	99.976268
578.000000	99.973641
577.000000	99.967934
576.000000	99.950468
575.000000	99.963241
574.000000	99.956958
573.000000	99.964027
572.000000	99.965965
571.000000	99.999886
570.000000	99.976689
569.000000	99.983998
568.000000	99.973368
567.000000	99.970734
566.000000	99.985021
565.000000	99.983761
564.000000	99.999314
563.000000	99.991762
562.000000	99.952653
561.000000	99.961924
560.000000	99.965460
559.000000	99.984214
558.000000	99.977918
557.000000	99.954454
556.000000	99.963831
555.000000	99.992673
554.000000	99.965761
553.000000	99.968502
552.000000	99.972048
551.000000	99.968832
550.000000	99.967337
549.000000	99.969968
548.000000	99.982341
547.000000	99.970980
546.000000	99.966618
545.000000	99.971657
544.000000	99.978075
543.000000	99.968427
542.000000	99.982315
541.000000	99.972314
540.000000	99.968174
539.000000	99.971376
538.000000	99.977693
537.000000	99.953311
536.000000	99.980095
535.000000	99.993209
534.000000	99.976972
533.000000	99.989172
532.000000	99.970846
531.000000	99.961959
530.000000	99.961367
529.000000	99.961235
528.000000	99.995613
527.000000	99.993300
526.000000	99.970300
525.000000	99.978955
524.000000	99.970381
523.000000	99.972444
522.000000	99.974048
521.000000	99.971827
520.000000	99.969137
519.000000	99.965627
518.000000	99.972342
517.000000	99.983717
516.000000	99.974739
515.000000	99.982174
514.000000	99.967353
513.000000	99.963594
512.000000	99.993810
511.000000	99.987962
510.000000	99.970997
509.000000	99.965247
508.000000	99.978225
507.000000	99.984072
506.000000	99.961341
505.000000	99.977737
504.000000	99.974221
503.000000	99.975157
502.000000	99.981135
501.000000	99.971060
500.000000	99.974816
499.000000	99.950233
498.000000	99.976232
497.000000	99.958690
496.000000	99.988884
495.000000	99.989474
494.000000	100.018825
493.000000	99.972768
492.000000	99.961911
491.000000	99.959695
490.000000	99.955740
489.000000	99.962047
488.000000	99.977695
487.000000	99.982486
486.000000	99.993112
485.000000	99.961713
484.000000	99.994046
483.000000	99.963592
482.000000	99.959635
481.000000	99.955217
480.000000	99.985176
479.000000	99.972885
478.000000	99.998129
477.000000	99.980692
476.000000	99.974123
475.000000	99.968837
474.000000	99.961435
473.000000	99.989325
472.000000	99.983099
471.000000	99.978624
470.000000	100.002938
469.000000	99.981775
468.000000	99.969528
467.000000	99.956325
466.000000	99.969732
465.000000	99.977021
464.000000	99.972651
463.000000	99.983255
462.000000	99.978651
461.000000	99.996932
460.000000	99.977699
459.000000	99.979112
458.000000	99.968727
457.000000	99.947846
456.000000	99.985719
455.000000	99.982417
454.000000	99.992682
453.000000	99.999646
452.000000	99.982059
451.000000	99.983594
450.000000	99.986072
449.000000	99.983476
448.000000	100.002007
447.000000	99.966833
446.000000	99.983943
445.000000	99.992680
444.000000	99.991737
443.000000	99.961756
442.000000	99.969057
441.000000	99.975423
440.000000	99.984987
439.000000	99.972450
438.000000	99.979657
437.000000	99.983910
436.000000	99.977988
435.000000	99.990172
434.000000	99.966488
433.000000	99.961263
432.000000	99.944666
431.000000	99.954013
430.000000	99.948780
429.000000	99.941766
428.000000	99.961677
427.000000	99.979706
426.000000	99.963198
425.000000	99.978144
424.000000	99.981465
423.000000	99.965299
422.000000	99.946034
421.000000	99.958736
420.000000	99.961228
419.000000	99.977992
418.000000	99.976313
417.000000	99.979878
416.000000	99.981066
415.000000	99.978559
414.000000	99.979505
413.000000	99.974255
412.000000	99.990103
411.000000	99.981514
410.000000	99.961830
409.000000	99.967428
408.000000	99.976607
407.000000	99.990329
406.000000	99.987819
405.000000	99.969422
404.000000	99.973715
403.000000	99.978963
402.000000	99.980273
401.000000	99.950138
400.000000	99.967581
399.000000	99.985761
398.000000	99.988029
397.000000	99.977008
396.000000	99.960954
395.000000	99.981429
394.000000	99.983583
393.000000	99.974351
392.000000	99.950015
391.000000	99.961150
390.000000	99.994962
389.000000	100.002639
388.000000	100.010081
387.000000	99.984997
386.000000	99.965193
385.000000	99.982232
384.000000	99.990994
383.000000	99.960615
382.000000	99.918355
381.000000	99.956647
380.000000	99.981021
379.000000	99.964813
378.000000	99.971544
377.000000	99.997381
376.000000	99.981890
375.000000	99.992961
374.000000	100.042776
373.000000	100.009925
372.000000	99.962553
371.000000	99.967914
370.000000	99.961546
369.000000	99.970148
368.000000	100.001200
367.000000	100.005401
366.000000	99.965552
365.000000	99.959398
364.000000	100.005530
363.000000	99.993265
362.000000	99.970769
361.000000	99.995067
360.000000	99.999278
359.000000	99.978206
358.000000	99.983742
357.000000	100.010964
356.000000	99.987106
355.000000	99.975171
354.000000	99.953469
353.000000	99.939232
352.000000	99.965988
351.000000	99.980940
350.000000	99.971166
349.000000	99.973817
348.000000	100.002052
347.000000	100.008575
346.000000	100.012563
345.000000	99.956771
344.000000	99.931416
343.000000	99.957970
342.000000	99.970164
341.000000	99.951317
340.000000	99.943339
339.000000	99.956740
338.000000	99.971596
337.000000	100.005441
336.000000	100.046199
335.000000	100.027697
334.000000	100.001451
333.000000	99.986329
332.000000	99.977135
331.000000	99.969398
330.000000	100.007867
329.000000	100.003753
328.000000	99.961393
327.000000	100.012107
326.000000	100.038752
325.000000	99.969846
324.000000	99.924208
323.000000	99.963063
322.000000	100.009572
321.000000	100.004483
320.000000	99.963650
319.000000	99.942990
318.000000	99.979380
317.000000	100.000603
316.000000	99.972726
315.000000	99.942788
314.000000	99.965940
313.000000	99.953108
312.000000	99.988633
311.000000	99.928296
310.000000	99.973259
309.000000	100.011381
308.000000	100.012721
307.000000	100.004122
306.000000	99.959977
305.000000	99.965420
304.000000	99.973658
303.000000	99.998056
302.000000	99.995016
301.000000	100.004744
300.000000	99.992819
299.000000	99.951539
298.000000	99.976965
297.000000	99.978653
296.000000	99.972175
295.000000	99.972029
294.000000	99.981786
293.000000	99.973697
292.000000	99.984814
291.000000	99.946076
290.000000	99.977182
289.000000	99.963047
288.000000	99.964613
287.000000	99.979584
286.000000	99.982026
285.000000	99.986075
284.000000	99.963001
283.000000	99.991237
282.000000	99.980366
281.000000	99.986160
280.000000	99.971683
279.000000	99.979830
278.000000	99.960383
277.000000	99.984637
276.000000	99.978309
275.000000	99.951396
274.000000	99.961039
273.000000	99.986223
272.000000	99.962630
271.000000	99.998013
270.000000	100.002609
269.000000	99.969929
268.000000	99.968176
267.000000	99.957603
266.000000	99.979478
265.000000	99.954350
264.000000	99.944525
263.000000	99.968153
262.000000	99.992784
261.000000	99.984199
260.000000	99.996890
259.000000	99.993781
258.000000	99.991917
257.000000	99.966811
256.000000	99.977132
255.000000	99.989190
254.000000	99.994411
253.000000	99.965862
252.000000	99.976918
251.000000	99.971598
250.000000	99.992188
249.000000	99.992936
248.000000	99.981417
247.000000	99.960632
246.000000	100.022276
245.000000	100.002721
244.000000	99.979370
243.000000	100.002345
242.000000	99.981013
241.000000	99.972787
240.000000	99.972704
239.000000	99.984406
238.000000	99.995953
237.000000	99.990205
236.000000	99.997676
235.000000	99.999633
234.000000	99.966536
233.000000	100.001099
232.000000	100.013681
231.000000	99.994990
230.000000	99.998288
229.000000	100.015418
228.000000	100.004165
227.000000	99.988712
226.000000	99.997419
225.000000	99.977223
224.000000	99.969405
223.000000	100.003339
222.000000	100.001488
221.000000	100.006711
220.000000	100.022801
219.000000	100.043973
218.000000	100.014779
217.000000	100.006782
216.000000	100.015365
215.000000	99.986360
214.000000	99.999240
213.000000	100.018694
212.000000	100.055641
211.000000	100.059413
210.000000	100.040859
209.000000	100.043716
208.000000	100.051786
207.000000	100.051598
206.000000	100.029358
205.000000	100.043384
204.000000	100.052666
203.000000	100.047493
202.000000	100.032596
201.000000	100.059435
200.000000	100.066217
199.000000	100.060128
198.000000	100.115419
197.000000	100.117231
196.000000	100.064647
195.000000	100.063239
194.000000	100.075305
193.000000	100.128699
192.000000	100.176739
191.000000	100.240205
190.000000	100.366018
