PE UV       SUBTECH     SPECTRUM    ASCII       PEDS        4.00        
   -1
N2_4bar.Sample.Cycle6.ASC
26/05/13
17:25:06.00
26/05/13
17:25:06.00
Jinky Agarwala

190.000000
1
Lambda 850+
860L2410213
PerkinElmer UV WinLab 7.4.0.367 / 2.02.11 Lambda 800 UV/VIS, May 23 2018 11:23:04

0
0
1
0
0
UV/VIS
1
1
10
RBeamAtt,SBeamAtt,uv/vis detector
0
0
0
0
Fix
 
0
0.2
0
0
0
 
 
 
0
 
0
319.2
0
Front
100
 
S:100 R:100
 
0
0
0
 
0
 
 
 
0
 
 
0
0
0
0
0
 
 
 
 
0
0


0
0

0


#HDR
-1
-1
#GR
nm
%T
1.0
0.0
800.000000
-1.000000
611
8
100.403108
99.896296
#DATA
800.000000	99.896296
799.000000	100.030044
798.000000	100.015137
797.000000	100.009913
796.000000	100.016994
795.000000	100.013403
794.000000	99.950328
793.000000	100.010458
792.000000	99.937445
791.000000	99.964353
790.000000	99.958128
789.000000	99.936955
788.000000	99.980688
787.000000	99.959079
786.000000	99.967367
785.000000	100.027515
784.000000	99.918333
783.000000	99.956866
782.000000	100.025577
781.000000	100.047023
780.000000	100.001640
779.000000	99.953089
778.000000	99.966634
777.000000	99.972869
776.000000	99.970224
775.000000	99.966609
774.000000	100.041948
773.000000	99.984773
772.000000	100.010627
771.000000	99.992329
770.000000	99.969417
769.000000	100.026760
768.000000	99.954591
767.000000	99.965985
766.000000	99.946442
765.000000	99.947648
764.000000	100.011420
763.000000	99.945431
762.000000	99.949034
761.000000	99.990660
760.000000	99.997471
759.000000	99.957888
758.000000	99.926641
757.000000	99.987236
756.000000	99.942332
755.000000	99.973579
754.000000	99.987667
753.000000	99.984357
752.000000	99.961989
751.000000	99.973326
750.000000	99.937949
749.000000	99.962392
748.000000	99.984003
747.000000	99.972194
746.000000	99.975056
745.000000	99.969305
744.000000	99.971501
743.000000	99.981215
742.000000	99.959561
741.000000	99.927397
740.000000	99.991707
739.000000	99.954993
738.000000	99.998783
737.000000	99.997676
736.000000	99.988819
735.000000	99.938443
734.000000	99.937214
733.000000	99.938411
732.000000	99.960437
731.000000	99.966406
730.000000	99.970944
729.000000	100.009653
728.000000	99.964602
727.000000	99.945841
726.000000	99.968249
725.000000	99.977898
724.000000	99.965124
723.000000	99.945455
722.000000	99.943438
721.000000	99.974764
720.000000	99.979762
719.000000	99.955734
718.000000	99.973742
717.000000	99.982194
716.000000	99.969391
715.000000	99.950795
714.000000	99.967593
713.000000	99.971257
712.000000	99.953536
711.000000	99.956424
710.000000	99.980045
709.000000	99.990632
708.000000	99.975794
707.000000	99.974002
706.000000	99.980355
705.000000	99.965723
704.000000	99.994639
703.000000	99.981235
702.000000	99.970064
701.000000	99.941463
700.000000	99.945025
699.000000	99.956629
698.000000	99.968240
697.000000	99.986688
696.000000	99.992951
695.000000	99.982206
694.000000	99.977725
693.000000	99.957567
692.000000	99.964278
691.000000	99.984544
690.000000	99.967183
689.000000	99.966504
688.000000	99.949473
687.000000	99.960336
686.000000	99.979824
685.000000	99.973989
684.000000	99.957500
683.000000	99.965569
682.000000	99.980256
681.000000	99.962639
680.000000	99.960604
679.000000	99.977431
678.000000	99.994946
677.000000	99.972934
676.000000	99.968095
675.000000	99.972359
674.000000	99.979773
673.000000	99.969878
672.000000	99.973242
671.000000	99.986504
670.000000	99.969857
669.000000	99.963441
668.000000	99.976935
667.000000	99.983005
666.000000	99.968369
665.000000	99.968590
664.000000	99.968363
663.000000	99.962615
662.000000	99.980739
661.000000	99.980171
660.000000	99.954926
659.000000	99.957737
658.000000	99.982639
657.000000	99.995152
656.000000	99.980945
655.000000	99.959517
654.000000	99.964019
653.000000	99.990410
652.000000	99.989731
651.000000	99.994583
650.000000	99.974491
649.000000	99.949433
648.000000	99.967036
647.000000	99.982044
646.000000	99.978878
645.000000	99.960240
644.000000	99.951876
643.000000	99.971751
642.000000	99.955029
641.000000	99.957733
640.000000	99.982476
639.000000	99.977838
638.000000	99.973087
637.000000	99.969125
636.000000	99.970138
635.000000	99.960516
634.000000	99.958364
633.000000	99.976574
632.000000	99.990492
631.000000	99.989246
630.000000	99.975208
629.000000	99.967164
628.000000	99.966481
627.000000	99.971571
626.000000	99.967039
625.000000	99.943706
624.000000	99.961706
623.000000	99.956828
622.000000	99.977448
621.000000	99.964413
620.000000	99.972453
619.000000	99.977665
618.000000	99.957146
617.000000	99.958952
616.000000	99.955316
615.000000	99.938413
614.000000	99.957462
613.000000	99.958702
612.000000	99.970608
611.000000	99.978775
610.000000	99.981611
609.000000	99.972866
608.000000	99.959016
607.000000	99.945387
606.000000	99.960024
605.000000	99.976262
604.000000	99.969782
603.000000	99.955123
602.000000	99.967158
601.000000	99.978291
600.000000	99.964991
599.000000	99.972491
598.000000	99.977600
597.000000	99.956217
596.000000	99.957231
595.000000	99.963369
594.000000	99.966434
593.000000	99.962675
592.000000	99.967448
591.000000	99.974613
590.000000	99.981442
589.000000	99.977453
588.000000	99.965488
587.000000	99.960246
586.000000	99.974365
585.000000	99.982220
584.000000	99.965464
583.000000	99.960213
582.000000	99.973544
581.000000	99.961568
580.000000	99.973080
579.000000	99.980148
578.000000	99.969533
577.000000	99.961087
576.000000	99.957544
575.000000	99.957533
574.000000	99.953761
573.000000	99.969166
572.000000	99.946320
571.000000	99.987888
570.000000	99.958863
569.000000	99.983426
568.000000	99.974054
567.000000	99.977707
566.000000	99.962725
565.000000	99.964891
564.000000	99.993594
563.000000	99.989245
562.000000	99.958028
561.000000	99.950489
560.000000	99.959627
559.000000	99.953556
558.000000	99.971854
557.000000	99.957773
556.000000	99.954789
555.000000	99.976759
554.000000	99.962784
553.000000	99.971709
552.000000	99.971589
551.000000	99.980176
550.000000	99.979485
549.000000	99.967102
548.000000	99.972594
547.000000	99.976142
546.000000	99.958359
545.000000	99.969362
544.000000	99.979452
543.000000	99.966246
542.000000	99.946485
541.000000	99.968983
540.000000	99.953582
539.000000	99.978044
538.000000	99.960676
537.000000	99.964581
536.000000	99.955127
535.000000	99.975482
534.000000	99.964077
533.000000	99.979841
532.000000	99.979143
531.000000	99.977752
530.000000	99.968978
529.000000	99.968734
528.000000	99.981642
527.000000	99.989719
526.000000	99.962788
525.000000	99.978724
524.000000	99.976860
523.000000	99.973949
522.000000	99.966749
521.000000	99.972291
520.000000	99.952429
519.000000	99.978749
518.000000	99.975712
517.000000	99.967782
516.000000	99.976136
515.000000	99.972737
514.000000	99.977147
513.000000	99.957993
512.000000	99.974540
511.000000	99.971248
510.000000	99.973687
509.000000	99.963024
508.000000	99.972371
507.000000	99.977513
506.000000	99.975516
505.000000	99.963910
504.000000	99.971291
503.000000	99.970353
502.000000	99.975393
501.000000	99.981956
500.000000	99.978096
499.000000	99.965924
498.000000	99.983023
497.000000	99.951200
496.000000	100.000585
495.000000	99.976960
494.000000	99.987255
493.000000	99.945303
492.000000	99.947073
491.000000	99.971027
490.000000	99.952470
489.000000	99.975594
488.000000	99.989256
487.000000	99.971861
486.000000	99.947230
485.000000	99.957044
484.000000	99.990778
483.000000	99.952856
482.000000	99.964301
481.000000	99.959299
480.000000	99.965684
479.000000	99.966106
478.000000	99.969473
477.000000	99.955766
476.000000	99.958316
475.000000	99.970243
474.000000	99.963779
473.000000	99.982052
472.000000	99.965963
471.000000	99.972046
470.000000	99.982841
469.000000	99.959788
468.000000	99.969528
467.000000	99.976102
466.000000	99.959486
465.000000	99.978553
464.000000	99.960038
463.000000	99.968397
462.000000	99.971928
461.000000	99.987021
460.000000	99.981239
459.000000	99.982652
458.000000	99.970143
457.000000	99.962359
456.000000	99.983712
455.000000	99.966249
454.000000	99.974034
453.000000	99.968252
452.000000	99.972025
451.000000	99.940513
450.000000	99.974858
449.000000	99.970374
448.000000	100.003542
447.000000	99.959987
446.000000	99.988784
445.000000	99.988783
444.000000	99.995042
443.000000	99.955382
442.000000	99.964215
441.000000	99.991492
440.000000	100.008275
439.000000	99.996571
438.000000	99.994441
437.000000	99.964270
436.000000	99.961064
435.000000	99.995500
434.000000	99.975132
433.000000	99.961263
432.000000	99.967416
431.000000	99.951880
430.000000	99.946765
429.000000	99.963707
428.000000	99.967490
427.000000	99.950749
426.000000	99.973289
425.000000	99.993111
424.000000	99.987881
423.000000	99.974806
422.000000	99.988232
421.000000	99.976216
420.000000	99.968720
419.000000	99.948608
418.000000	99.967862
417.000000	99.977616
416.000000	99.949272
415.000000	99.947230
414.000000	99.956151
413.000000	99.968176
412.000000	99.980087
411.000000	99.980321
410.000000	99.961949
409.000000	99.954661
408.000000	99.952259
407.000000	99.957376
406.000000	99.970025
405.000000	99.981725
404.000000	99.977897
403.000000	99.977170
402.000000	99.974176
401.000000	99.957073
400.000000	99.993660
399.000000	99.998564
398.000000	100.006464
397.000000	100.005868
396.000000	100.025272
395.000000	100.005392
394.000000	99.961535
393.000000	99.955055
392.000000	99.948097
391.000000	99.967265
390.000000	99.991123
389.000000	99.977325
388.000000	99.964717
387.000000	99.970835
386.000000	99.972875
385.000000	99.968665
384.000000	99.993516
383.000000	99.980788
382.000000	99.940567
381.000000	99.954486
380.000000	99.978979
379.000000	99.993298
378.000000	100.002977
377.000000	100.005713
376.000000	99.931850
375.000000	99.909567
374.000000	99.998925
373.000000	100.036352
372.000000	99.984327
371.000000	99.935708
370.000000	99.962384
369.000000	99.996403
368.000000	99.991001
367.000000	99.975277
366.000000	99.958350
365.000000	99.971411
364.000000	100.003006
363.000000	99.994949
362.000000	99.965355
361.000000	99.962102
360.000000	99.974603
359.000000	99.970620
358.000000	99.976997
357.000000	99.986506
356.000000	99.988191
355.000000	99.989273
354.000000	99.969381
353.000000	99.968410
352.000000	99.976119
351.000000	99.967066
350.000000	99.963807
349.000000	99.946910
348.000000	99.981410
347.000000	100.024517
346.000000	100.004832
345.000000	99.965465
344.000000	99.960999
343.000000	99.957729
342.000000	99.990336
341.000000	99.965088
340.000000	99.940319
339.000000	99.973174
338.000000	99.966761
337.000000	99.982832
336.000000	100.014150
335.000000	100.005805
334.000000	99.971943
333.000000	100.013550
332.000000	99.982095
331.000000	99.974962
330.000000	100.000484
329.000000	99.978574
328.000000	99.952558
327.000000	99.994067
326.000000	100.031001
325.000000	100.003996
324.000000	99.948786
323.000000	99.954828
322.000000	99.996729
321.000000	99.996850
320.000000	99.967042
319.000000	99.949029
318.000000	99.952732
317.000000	99.977557
316.000000	99.972363
315.000000	99.936874
314.000000	99.952775
313.000000	99.967732
312.000000	99.990084
311.000000	99.910764
310.000000	99.936838
309.000000	99.974695
308.000000	100.002181
307.000000	100.010911
306.000000	99.999030
305.000000	99.995875
304.000000	99.973294
303.000000	99.984327
302.000000	99.995988
301.000000	99.990026
300.000000	99.955456
299.000000	99.937902
298.000000	99.983547
297.000000	99.993657
296.000000	99.965951
295.000000	99.958227
294.000000	99.965406
293.000000	99.985319
292.000000	100.005266
291.000000	99.984190
290.000000	99.960008
289.000000	99.971886
288.000000	99.951343
287.000000	99.951174
286.000000	99.996307
285.000000	99.991497
284.000000	99.996053
283.000000	99.995310
282.000000	99.969993
281.000000	99.970590
280.000000	99.955238
279.000000	99.968198
278.000000	99.963725
277.000000	99.961593
276.000000	99.967897
275.000000	99.982889
274.000000	99.992183
273.000000	99.974308
272.000000	99.972190
271.000000	99.939769
270.000000	99.957884
269.000000	99.943462
268.000000	99.983467
267.000000	99.969539
266.000000	99.975000
265.000000	99.967162
264.000000	99.957958
263.000000	99.957454
262.000000	99.983079
261.000000	100.001617
260.000000	99.986938
259.000000	99.970026
258.000000	99.987067
257.000000	99.980112
256.000000	99.971912
255.000000	100.003231
254.000000	99.986959
253.000000	99.966855
252.000000	99.993175
251.000000	99.977551
250.000000	99.989460
249.000000	99.965301
248.000000	99.997151
247.000000	99.971279
246.000000	100.008787
245.000000	99.981945
244.000000	99.964793
243.000000	100.019997
242.000000	99.965602
241.000000	99.974634
240.000000	99.978852
239.000000	99.980723
238.000000	99.997302
237.000000	99.967554
236.000000	99.980916
235.000000	100.000122
234.000000	99.977406
233.000000	99.980951
232.000000	99.978135
231.000000	99.996701
230.000000	99.980438
229.000000	99.976872
228.000000	99.976724
227.000000	100.004049
226.000000	99.987955
225.000000	99.969098
224.000000	100.000000
223.000000	99.985656
222.000000	100.009545
221.000000	100.018268
220.000000	100.010840
219.000000	100.010494
218.000000	100.007765
217.000000	100.013313
216.000000	99.993325
215.000000	99.989896
214.000000	100.002028
213.000000	100.016405
212.000000	100.059852
211.000000	100.049553
210.000000	100.030580
209.000000	100.037011
208.000000	100.039357
207.000000	100.045230
206.000000	100.022834
205.000000	100.034340
204.000000	100.054773
203.000000	100.064162
202.000000	100.055613
201.000000	100.047521
200.000000	100.069043
199.000000	100.053102
198.000000	100.084261
197.000000	100.111946
196.000000	100.068170
195.000000	100.059854
194.000000	100.088396
193.000000	100.147296
192.000000	100.132987
191.000000	100.253268
190.000000	100.403108
