PE UV       SUBTECH     SPECTRUM    ASCII       PEDS        4.00        
   -1
N2_4bar.Sample.Cycle3.ASC
26/05/13
17:25:06.00
26/05/13
17:25:06.00
Jinky Agarwala

190.000000
1
Lambda 850+
860L2410213
PerkinElmer UV WinLab 7.4.0.367 / 2.02.11 Lambda 800 UV/VIS, May 23 2018 11:23:04

0
0
1
0
0
UV/VIS
1
1
10
RBeamAtt,SBeamAtt,uv/vis detector
0
0
0
0
Fix
 
0
0.2
0
0
0
 
 
 
0
 
0
319.2
0
Front
100
 
S:100 R:100
 
0
0
0
 
0
 
 
 
0
 
 
0
0
0
0
0
 
 
 
 
0
0


0
0

0


#HDR
-1
-1
#GR
nm
%T
1.0
0.0
800.000000
-1.000000
611
8
100.338167
99.897015
#DATA
800.000000	99.953317
799.000000	99.970065
798.000000	100.006207
797.000000	100.016340
796.000000	100.005229
795.000000	100.008826
794.000000	99.902181
793.000000	99.920367
792.000000	99.971447
791.000000	99.944731
790.000000	99.957910
789.000000	100.023233
788.000000	99.980361
787.000000	99.935180
786.000000	99.963111
785.000000	99.961458
784.000000	99.922919
783.000000	99.932952
782.000000	100.008416
781.000000	100.031713
780.000000	99.971792
779.000000	99.960744
778.000000	99.978230
777.000000	99.982278
776.000000	99.991571
775.000000	99.953472
774.000000	99.978533
773.000000	99.975462
772.000000	99.986963
771.000000	99.961099
770.000000	99.968869
769.000000	99.981355
768.000000	99.998135
767.000000	99.958962
766.000000	99.951600
765.000000	99.935136
764.000000	99.990337
763.000000	99.951251
762.000000	99.987698
761.000000	99.969893
760.000000	99.993844
759.000000	99.963385
758.000000	99.941599
757.000000	99.995929
756.000000	99.983382
755.000000	99.980294
754.000000	99.956834
753.000000	99.969927
752.000000	99.981600
751.000000	99.989308
750.000000	99.944672
749.000000	100.009816
748.000000	100.005516
747.000000	99.965353
746.000000	99.957176
745.000000	99.956387
744.000000	100.014360
743.000000	100.017569
742.000000	99.940226
741.000000	99.935575
740.000000	99.944714
739.000000	99.954993
738.000000	99.968578
737.000000	99.969457
736.000000	99.975646
735.000000	99.968336
734.000000	99.928133
733.000000	99.927777
732.000000	99.962875
731.000000	99.977161
730.000000	99.960631
729.000000	99.999778
728.000000	99.972925
727.000000	99.951279
726.000000	99.956148
725.000000	99.969013
724.000000	99.951351
723.000000	99.956897
722.000000	99.970441
721.000000	99.969761
720.000000	99.953741
719.000000	99.967301
718.000000	99.963506
717.000000	99.946693
716.000000	99.956924
715.000000	99.967382
714.000000	99.964253
713.000000	99.950980
712.000000	99.952533
711.000000	99.953749
710.000000	99.960871
709.000000	99.982268
708.000000	99.965420
707.000000	99.949789
706.000000	99.963166
705.000000	99.978786
704.000000	99.983135
703.000000	99.990953
702.000000	99.978553
701.000000	99.961794
700.000000	99.934856
699.000000	99.945340
698.000000	99.976180
697.000000	99.975501
696.000000	99.975383
695.000000	99.961614
694.000000	99.980299
693.000000	99.965516
692.000000	99.969653
691.000000	99.969872
690.000000	99.959455
689.000000	99.961126
688.000000	99.964037
687.000000	99.949580
686.000000	99.960320
685.000000	99.962889
684.000000	99.955482
683.000000	99.965120
682.000000	99.966008
681.000000	99.955907
680.000000	99.969696
679.000000	99.982933
678.000000	99.975967
677.000000	99.952269
676.000000	99.970005
675.000000	99.970674
674.000000	99.962130
673.000000	99.959875
672.000000	99.970543
671.000000	99.978857
670.000000	99.964346
669.000000	99.972778
668.000000	99.984135
667.000000	99.982668
666.000000	99.974898
665.000000	99.975457
664.000000	99.967124
663.000000	99.963066
662.000000	99.957762
661.000000	99.950990
660.000000	99.956166
659.000000	99.964950
658.000000	99.973395
657.000000	99.952759
656.000000	99.948359
655.000000	99.961096
654.000000	99.966162
653.000000	99.974615
652.000000	99.969758
651.000000	99.971897
650.000000	99.965461
649.000000	99.953045
648.000000	99.965794
647.000000	99.970638
646.000000	99.960919
645.000000	99.956173
644.000000	99.955265
643.000000	99.971412
642.000000	99.945650
641.000000	99.948918
640.000000	99.984737
639.000000	99.975916
638.000000	99.969808
637.000000	99.958041
636.000000	99.953171
635.000000	99.959498
634.000000	99.979974
633.000000	99.988570
632.000000	99.977248
631.000000	99.957212
630.000000	99.959133
629.000000	99.965465
628.000000	99.973615
627.000000	99.978593
626.000000	99.958883
625.000000	99.955826
624.000000	99.958874
623.000000	99.952635
622.000000	99.952630
621.000000	99.949339
620.000000	99.961683
619.000000	99.960205
618.000000	99.943541
617.000000	99.951695
616.000000	99.955657
615.000000	99.938867
614.000000	99.934548
613.000000	99.964148
612.000000	99.976509
611.000000	99.967424
610.000000	99.959704
609.000000	99.969233
608.000000	99.947435
607.000000	99.958217
606.000000	99.971154
605.000000	99.959225
604.000000	99.965238
603.000000	99.956259
602.000000	99.965908
601.000000	99.967494
600.000000	99.965673
599.000000	99.954871
598.000000	99.966230
597.000000	99.963154
596.000000	99.972587
595.000000	99.960753
594.000000	99.975195
593.000000	99.960171
592.000000	99.955270
591.000000	99.976890
590.000000	99.957078
589.000000	99.953767
588.000000	99.975284
587.000000	99.962866
586.000000	99.966162
585.000000	99.971849
584.000000	99.965806
583.000000	99.957249
582.000000	99.972632
581.000000	99.964875
580.000000	99.967947
579.000000	99.977295
578.000000	99.957437
577.000000	99.960403
576.000000	99.966560
575.000000	99.966323
574.000000	99.960383
573.000000	99.966197
572.000000	99.946891
571.000000	99.985717
570.000000	99.968119
569.000000	99.992799
568.000000	99.968796
567.000000	99.976450
566.000000	99.972101
565.000000	99.975413
564.000000	99.965568
563.000000	99.979406
562.000000	99.963518
561.000000	99.966612
560.000000	99.980100
559.000000	99.964881
558.000000	99.956979
557.000000	99.956857
556.000000	99.963259
555.000000	99.973095
554.000000	99.961409
553.000000	99.972855
552.000000	99.979838
551.000000	99.983729
550.000000	99.986935
549.000000	99.959995
548.000000	99.962847
547.000000	99.970177
546.000000	99.954803
545.000000	99.958002
544.000000	99.980256
543.000000	99.979679
542.000000	99.969453
541.000000	99.963009
540.000000	99.963348
539.000000	99.967698
538.000000	99.971944
537.000000	99.972631
536.000000	99.974227
535.000000	99.970302
534.000000	99.963501
533.000000	99.978113
532.000000	99.973957
531.000000	99.974639
530.000000	99.959406
529.000000	99.947737
528.000000	99.990417
527.000000	99.976087
526.000000	99.957819
525.000000	99.962882
524.000000	99.962744
523.000000	99.977423
522.000000	99.966517
521.000000	99.963596
520.000000	99.973082
519.000000	99.970620
518.000000	99.967694
517.000000	99.972086
516.000000	99.975321
515.000000	99.989398
514.000000	99.969685
513.000000	99.957176
512.000000	99.974423
511.000000	99.971716
510.000000	99.972751
509.000000	99.967938
508.000000	99.974712
507.000000	99.971071
506.000000	99.960755
505.000000	99.968246
504.000000	99.947504
503.000000	99.952072
502.000000	99.973753
501.000000	99.963210
500.000000	99.980322
499.000000	99.981967
498.000000	99.980564
497.000000	99.973318
496.000000	99.962206
495.000000	99.980469
494.000000	99.972171
493.000000	99.983871
492.000000	99.939012
491.000000	99.968107
490.000000	99.951652
489.000000	99.973492
488.000000	99.981782
487.000000	99.965206
486.000000	99.994746
485.000000	99.954943
484.000000	100.002685
483.000000	99.960557
482.000000	99.956251
481.000000	99.951136
480.000000	99.980040
479.000000	99.989364
478.000000	99.994035
477.000000	99.975426
476.000000	99.950940
475.000000	99.955950
474.000000	99.970578
473.000000	99.966803
472.000000	99.967137
471.000000	99.969462
470.000000	99.970618
469.000000	99.975661
468.000000	99.963528
467.000000	99.968097
466.000000	99.954422
465.000000	99.986330
464.000000	99.972298
463.000000	99.965567
462.000000	99.964497
461.000000	99.979351
460.000000	99.976519
459.000000	99.962826
458.000000	99.963416
457.000000	99.956460
456.000000	99.976277
455.000000	99.970852
454.000000	99.970375
453.000000	99.973681
452.000000	99.986308
451.000000	99.972853
450.000000	99.959514
449.000000	99.969312
448.000000	100.014759
447.000000	99.969548
446.000000	99.999174
445.000000	99.999292
444.000000	100.002243
443.000000	99.970255
442.000000	99.963506
441.000000	99.972587
440.000000	99.972574
439.000000	99.956370
438.000000	99.964399
437.000000	99.952084
436.000000	99.963668
435.000000	99.985080
434.000000	99.964238
433.000000	99.970029
432.000000	99.958529
431.000000	99.947969
430.000000	99.959688
429.000000	99.945324
428.000000	99.970219
427.000000	99.978045
426.000000	99.972458
425.000000	99.987884
424.000000	99.983010
423.000000	99.978252
422.000000	99.955662
421.000000	99.968249
420.000000	99.951356
419.000000	99.946229
418.000000	99.994644
417.000000	99.986189
416.000000	99.963562
415.000000	99.964145
414.000000	99.962824
413.000000	99.978307
412.000000	99.995469
411.000000	100.001312
410.000000	99.972684
409.000000	99.979478
408.000000	99.977920
407.000000	99.970510
406.000000	99.968353
405.000000	99.964166
404.000000	99.971086
403.000000	99.976214
402.000000	99.971306
401.000000	99.965324
400.000000	99.968897
399.000000	99.950821
398.000000	99.963249
397.000000	99.978085
396.000000	99.970535
395.000000	100.004193
394.000000	99.976633
393.000000	99.960329
392.000000	99.942583
391.000000	99.968944
390.000000	99.988364
389.000000	99.976365
388.000000	99.996880
387.000000	100.009122
386.000000	99.959792
385.000000	99.956299
384.000000	99.963016
383.000000	99.959775
382.000000	99.943209
381.000000	99.948601
380.000000	99.975256
379.000000	99.989348
378.000000	100.025360
377.000000	100.031066
376.000000	99.968546
375.000000	99.990456
374.000000	100.053769
373.000000	100.019850
372.000000	99.947240
371.000000	99.965280
370.000000	99.975681
369.000000	99.964633
368.000000	99.974923
367.000000	99.950434
366.000000	99.897015
365.000000	99.946065
364.000000	99.986896
363.000000	99.953939
362.000000	99.953326
361.000000	99.955966
360.000000	99.998676
359.000000	100.004937
358.000000	99.979165
357.000000	99.971567
356.000000	99.961440
355.000000	99.997589
354.000000	99.973239
353.000000	99.934289
352.000000	99.924136
351.000000	99.971409
350.000000	99.963686
349.000000	99.929897
348.000000	99.977668
347.000000	100.021014
346.000000	100.025851
345.000000	99.985631
344.000000	99.925500
343.000000	99.933211
342.000000	99.936462
341.000000	99.942499
340.000000	99.959166
339.000000	99.984895
338.000000	100.023207
337.000000	100.036512
336.000000	100.024551
335.000000	100.009434
334.000000	99.991535
333.000000	100.029883
332.000000	100.009436
331.000000	99.949319
330.000000	99.995885
329.000000	99.963080
328.000000	99.924359
327.000000	99.967310
326.000000	99.959189
325.000000	99.985468
324.000000	99.957745
323.000000	99.928911
322.000000	99.990428
321.000000	99.994669
320.000000	99.967042
319.000000	99.934293
318.000000	99.939709
317.000000	99.963440
316.000000	99.934469
315.000000	99.924804
314.000000	99.972221
313.000000	99.977400
312.000000	99.985973
311.000000	99.936640
310.000000	99.933813
309.000000	99.957019
308.000000	99.990672
307.000000	99.999879
306.000000	99.996119
305.000000	99.975976
304.000000	99.931656
303.000000	99.964037
302.000000	99.993800
301.000000	99.997324
300.000000	99.965923
299.000000	99.934614
298.000000	99.990250
297.000000	99.995365
296.000000	99.942397
295.000000	99.961647
294.000000	99.974697
293.000000	99.950574
292.000000	99.996938
291.000000	99.955267
290.000000	99.990922
289.000000	99.973114
288.000000	99.944216
287.000000	99.968269
286.000000	99.962698
285.000000	99.988539
284.000000	99.973731
283.000000	99.990620
282.000000	99.959991
281.000000	99.970219
280.000000	99.974527
279.000000	99.985770
278.000000	99.954811
277.000000	99.978814
276.000000	99.970376
275.000000	99.969498
274.000000	99.988212
273.000000	99.967978
272.000000	99.953071
271.000000	99.978888
270.000000	99.968693
269.000000	99.969184
268.000000	99.973149
267.000000	99.976004
266.000000	99.978359
265.000000	99.971889
264.000000	99.971392
263.000000	99.949865
262.000000	99.980093
261.000000	99.985443
260.000000	100.002737
259.000000	99.992413
258.000000	99.992041
257.000000	99.978496
256.000000	99.963834
255.000000	99.982977
254.000000	99.977147
253.000000	99.958786
252.000000	99.974188
251.000000	99.966637
250.000000	99.985492
249.000000	99.970010
248.000000	99.990337
247.000000	99.955928
246.000000	99.979580
245.000000	99.969950
244.000000	99.977887
243.000000	99.991730
242.000000	99.961164
241.000000	100.004063
240.000000	99.974180
239.000000	99.975443
238.000000	100.005518
237.000000	99.954698
236.000000	100.007952
235.000000	100.009777
234.000000	99.996214
233.000000	99.972647
232.000000	99.999267
231.000000	100.009530
230.000000	100.005379
229.000000	100.001836
228.000000	99.988240
227.000000	99.998160
226.000000	99.983285
225.000000	99.975130
224.000000	99.980508
223.000000	99.987634
222.000000	99.989587
221.000000	100.007581
220.000000	100.030152
219.000000	100.021362
218.000000	100.013150
217.000000	100.006154
216.000000	100.000126
215.000000	99.979413
214.000000	100.015208
213.000000	100.038659
212.000000	100.069424
211.000000	100.049425
210.000000	100.001670
209.000000	100.045264
208.000000	100.065897
207.000000	100.055107
206.000000	100.041753
205.000000	100.032374
204.000000	100.034365
203.000000	100.044583
202.000000	100.056677
201.000000	100.054884
200.000000	100.076311
199.000000	100.050264
198.000000	100.093473
197.000000	100.107202
196.000000	100.051636
195.000000	100.076781
194.000000	100.090960
193.000000	100.167646
192.000000	100.126852
191.000000	100.262599
190.000000	100.338167
