PE UV       SUBTECH     SPECTRUM    ASCII       PEDS        4.00        
   -1
N2_4bar.Sample.Cycle7.ASC
26/05/13
17:25:06.00
26/05/13
17:25:06.00
Jinky Agarwala

190.000000
1
Lambda 850+
860L2410213
PerkinElmer UV WinLab 7.4.0.367 / 2.02.11 Lambda 800 UV/VIS, May 23 2018 11:23:04

0
0
1
0
0
UV/VIS
1
1
10
RBeamAtt,SBeamAtt,uv/vis detector
0
0
0
0
Fix
 
0
0.2
0
0
0
 
 
 
0
 
0
319.2
0
Front
100
 
S:100 R:100
 
0
0
0
 
0
 
 
 
0
 
 
0
0
0
0
0
 
 
 
 
0
0


0
0

0


#HDR
-1
-1
#GR
nm
%T
1.0
0.0
800.000000
-1.000000
611
8
100.345163
99.899893
#DATA
800.000000	99.954949
799.000000	99.988244
798.000000	99.966242
797.000000	99.982135
796.000000	99.958060
795.000000	100.004032
794.000000	99.899893
793.000000	99.936816
792.000000	99.982018
791.000000	99.957703
790.000000	99.920618
789.000000	99.967387
788.000000	99.962686
787.000000	99.957223
786.000000	99.972497
785.000000	99.974887
784.000000	99.949340
783.000000	99.933826
782.000000	99.993333
781.000000	99.996938
780.000000	99.995627
779.000000	99.994205
778.000000	99.978121
777.000000	100.002844
776.000000	99.967815
775.000000	99.946246
774.000000	99.989486
773.000000	100.018185
772.000000	99.972611
771.000000	99.978961
770.000000	99.973144
769.000000	99.994187
768.000000	99.982560
767.000000	100.001756
766.000000	99.919992
765.000000	99.932282
764.000000	99.962666
763.000000	99.957509
762.000000	99.938159
761.000000	99.957916
760.000000	100.040896
759.000000	99.991644
758.000000	99.952597
757.000000	99.973262
756.000000	99.945964
755.000000	99.963120
754.000000	100.005726
753.000000	100.035141
752.000000	99.966176
751.000000	99.968586
750.000000	99.936737
749.000000	99.966473
748.000000	99.983451
747.000000	99.969987
746.000000	99.945807
745.000000	99.961687
744.000000	99.989396
743.000000	99.991602
742.000000	99.956468
741.000000	99.942426
740.000000	99.969261
739.000000	99.967489
738.000000	99.957956
737.000000	99.928070
736.000000	99.958930
735.000000	99.942982
734.000000	99.952606
733.000000	99.943174
732.000000	99.973625
731.000000	99.984478
730.000000	99.957969
729.000000	99.984133
728.000000	99.977363
727.000000	99.961711
726.000000	99.993561
725.000000	99.994114
724.000000	99.953128
723.000000	99.951565
722.000000	99.959329
721.000000	99.944413
720.000000	99.953741
719.000000	99.950729
718.000000	99.977414
717.000000	99.975406
716.000000	99.953808
715.000000	99.952131
714.000000	99.945766
713.000000	99.962233
712.000000	99.953647
711.000000	99.946282
710.000000	99.957415
709.000000	99.972677
708.000000	99.973898
707.000000	99.960055
706.000000	99.950777
705.000000	99.971082
704.000000	99.990283
703.000000	99.980006
702.000000	99.965707
701.000000	99.931967
700.000000	99.931728
699.000000	99.953947
698.000000	99.982778
697.000000	99.978409
696.000000	99.974152
695.000000	99.976610
694.000000	99.981530
693.000000	99.969882
692.000000	99.961591
691.000000	99.969872
690.000000	99.966847
689.000000	99.969080
688.000000	99.961909
687.000000	99.968739
686.000000	99.981954
685.000000	99.985088
684.000000	99.968602
683.000000	99.965793
682.000000	99.956585
681.000000	99.956468
680.000000	99.963747
679.000000	99.980014
678.000000	99.994722
677.000000	99.975517
676.000000	99.979554
675.000000	99.985730
674.000000	99.986628
673.000000	99.972463
672.000000	99.967508
671.000000	99.990890
670.000000	99.963896
669.000000	99.946006
668.000000	99.958145
667.000000	99.970513
666.000000	99.956663
665.000000	99.958458
664.000000	99.962058
663.000000	99.943810
662.000000	99.955622
661.000000	99.986705
660.000000	99.975435
659.000000	99.968782
658.000000	99.979145
657.000000	99.972715
656.000000	99.966512
655.000000	99.959968
654.000000	99.960636
653.000000	99.976646
652.000000	99.991424
651.000000	99.998420
650.000000	99.992325
649.000000	99.961623
648.000000	99.953601
647.000000	99.971655
646.000000	99.972101
645.000000	99.965323
644.000000	99.957863
643.000000	99.970847
642.000000	99.953899
641.000000	99.955021
640.000000	99.974449
639.000000	99.964722
638.000000	99.961666
637.000000	99.956571
636.000000	99.953963
635.000000	99.964476
634.000000	99.962211
633.000000	99.969897
632.000000	99.972720
631.000000	99.961966
630.000000	99.961510
629.000000	99.974750
628.000000	99.964216
627.000000	99.983124
626.000000	99.980744
625.000000	99.946311
624.000000	99.970996
623.000000	99.971332
622.000000	99.963736
621.000000	99.952626
620.000000	99.971999
619.000000	99.973697
618.000000	99.945128
617.000000	99.945345
616.000000	99.958605
615.000000	99.948281
614.000000	99.952924
613.000000	99.977536
612.000000	99.999773
611.000000	99.995687
610.000000	99.973438
609.000000	99.968665
608.000000	99.954361
607.000000	99.955606
606.000000	99.965248
605.000000	99.958771
604.000000	99.966374
603.000000	99.970574
602.000000	99.978636
601.000000	99.970903
600.000000	99.957262
599.000000	99.962032
598.000000	99.972938
597.000000	99.977597
596.000000	99.972928
595.000000	99.963369
594.000000	99.971782
593.000000	99.970527
592.000000	99.970521
591.000000	99.968238
590.000000	99.958559
589.000000	99.959916
588.000000	99.966514
587.000000	99.948628
586.000000	99.959439
585.000000	99.964555
584.000000	99.962158
583.000000	99.958731
582.000000	99.972746
581.000000	99.973998
580.000000	99.977529
579.000000	99.983114
578.000000	99.964398
577.000000	99.974439
576.000000	99.948185
575.000000	99.958789
574.000000	99.968375
573.000000	99.979672
572.000000	99.959112
571.000000	99.997943
570.000000	99.973718
569.000000	99.989942
568.000000	99.977026
567.000000	99.990740
566.000000	99.972330
565.000000	99.977929
564.000000	99.980668
563.000000	99.982724
562.000000	99.955169
561.000000	99.965011
560.000000	99.974381
559.000000	99.977121
558.000000	99.961556
557.000000	99.975282
556.000000	99.963831
555.000000	99.973782
554.000000	99.963013
553.000000	99.976062
552.000000	99.964716
551.000000	99.971468
550.000000	99.967680
549.000000	99.974323
548.000000	99.983831
547.000000	99.974192
546.000000	99.955147
545.000000	99.980952
544.000000	99.985307
543.000000	99.972446
542.000000	99.984726
541.000000	99.983457
540.000000	99.969093
539.000000	99.986090
538.000000	99.978728
537.000000	99.949516
536.000000	99.974227
535.000000	99.983425
534.000000	99.972137
533.000000	99.989172
532.000000	99.984328
531.000000	99.971873
530.000000	99.973014
529.000000	99.960658
528.000000	99.982797
527.000000	99.990181
526.000000	99.979892
525.000000	99.985199
524.000000	99.973967
523.000000	99.967118
522.000000	99.972773
521.000000	99.976697
520.000000	99.968673
519.000000	99.977704
518.000000	99.966415
517.000000	99.970457
516.000000	99.982189
515.000000	99.983572
514.000000	99.965487
513.000000	99.966394
512.000000	99.979328
511.000000	99.975573
510.000000	99.979300
509.000000	99.977416
508.000000	99.976234
507.000000	99.966855
506.000000	99.962278
505.000000	99.983010
504.000000	99.969651
503.000000	99.967775
502.000000	99.976331
501.000000	99.979379
500.000000	99.986764
499.000000	99.971662
498.000000	99.998127
497.000000	99.985255
496.000000	99.982332
495.000000	99.982106
494.000000	99.984566
493.000000	99.968210
492.000000	99.989952
491.000000	100.004673
490.000000	99.942193
489.000000	99.963449
488.000000	99.974776
487.000000	99.969993
486.000000	99.986224
485.000000	99.973853
484.000000	100.001167
483.000000	99.973861
482.000000	99.977367
481.000000	99.953818
480.000000	99.965100
479.000000	99.974171
478.000000	99.965613
477.000000	99.976362
476.000000	99.969089
475.000000	99.975515
474.000000	99.967882
473.000000	99.966451
472.000000	99.956104
471.000000	99.988725
470.000000	99.983076
469.000000	99.974720
468.000000	99.976705
467.000000	99.965743
466.000000	99.966552
465.000000	99.976078
464.000000	99.983497
463.000000	99.980189
462.000000	99.978769
461.000000	99.983009
460.000000	99.978053
459.000000	99.981118
458.000000	99.978522
457.000000	99.957522
456.000000	100.002833
455.000000	99.983479
454.000000	99.978401
453.000000	99.984657
452.000000	99.980288
451.000000	99.973915
450.000000	99.999764
449.000000	99.972617
448.000000	99.997757
447.000000	99.964709
446.000000	99.997403
445.000000	100.016175
444.000000	99.997757
443.000000	99.969547
442.000000	99.959372
441.000000	99.962661
440.000000	99.994207
439.000000	99.982382
438.000000	99.977410
437.000000	99.969357
436.000000	99.950413
435.000000	99.984606
434.000000	99.960685
433.000000	99.981283
432.000000	99.963861
431.000000	99.951643
430.000000	99.951151
429.000000	99.942122
428.000000	99.955388
427.000000	99.953360
426.000000	99.966166
425.000000	100.006652
424.000000	99.994178
423.000000	99.976826
422.000000	99.962319
421.000000	99.965633
420.000000	99.964439
419.000000	99.949203
418.000000	99.990835
417.000000	99.987856
416.000000	99.942842
415.000000	99.975700
414.000000	99.972118
413.000000	99.969368
412.000000	99.990103
411.000000	99.982468
410.000000	99.957059
409.000000	99.957525
408.000000	99.968014
407.000000	99.976479
406.000000	99.965129
405.000000	99.948638
404.000000	99.951014
403.000000	99.966651
402.000000	99.962220
401.000000	99.961976
400.000000	99.979783
399.000000	99.974872
398.000000	99.981325
397.000000	99.994970
396.000000	99.986465
395.000000	100.012341
394.000000	100.017615
393.000000	99.998682
392.000000	99.985256
391.000000	99.987170
390.000000	99.976009
389.000000	99.954769
388.000000	99.981519
387.000000	99.994839
386.000000	99.973355
385.000000	99.969506
384.000000	99.972142
383.000000	99.972383
382.000000	99.945730
381.000000	99.939234
380.000000	99.953154
379.000000	99.984321
378.000000	99.972020
377.000000	99.921918
376.000000	99.938879
375.000000	99.998330
374.000000	100.057712
373.000000	100.050462
372.000000	99.988395
371.000000	99.950913
370.000000	99.952920
369.000000	99.976022
368.000000	100.002400
367.000000	99.999160
366.000000	99.959910
365.000000	99.970690
364.000000	100.008776
363.000000	99.984967
362.000000	99.973896
361.000000	99.972449
360.000000	100.015527
359.000000	100.024202
358.000000	99.984585
357.000000	99.970723
356.000000	99.958789
355.000000	99.984693
354.000000	99.984088
353.000000	99.984567
352.000000	99.980341
351.000000	99.979854
350.000000	99.940040
349.000000	99.928932
348.000000	99.978272
347.000000	100.018720
346.000000	100.043608
345.000000	99.988891
344.000000	99.962690
343.000000	99.952173
342.000000	99.953373
341.000000	99.940807
340.000000	99.938024
339.000000	99.963507
338.000000	99.965069
337.000000	99.967477
336.000000	100.010280
335.000000	100.017295
334.000000	100.015721
333.000000	100.025044
332.000000	99.977982
331.000000	99.967826
330.000000	100.015370
329.000000	100.003147
328.000000	99.965387
327.000000	99.988740
326.000000	99.985468
325.000000	99.954587
324.000000	99.957745
323.000000	99.944897
322.000000	99.965953
321.000000	99.996244
320.000000	100.028838
319.000000	100.018601
318.000000	99.985289
317.000000	100.000724
316.000000	99.969346
315.000000	99.946892
314.000000	99.985869
313.000000	99.977037
312.000000	99.964327
311.000000	99.926725
310.000000	99.974711
309.000000	99.970458
308.000000	99.972015
307.000000	100.013457
306.000000	100.010309
305.000000	99.978039
304.000000	99.977543
303.000000	100.026365
302.000000	99.978968
301.000000	99.958886
300.000000	99.946450
299.000000	99.931936
298.000000	99.968312
297.000000	99.980849
296.000000	99.952648
295.000000	99.966288
294.000000	99.966140
293.000000	99.954367
292.000000	99.987631
291.000000	99.963601
290.000000	99.961603
289.000000	99.965379
288.000000	99.978620
287.000000	99.974050
286.000000	99.949279
285.000000	99.983610
284.000000	99.990627
283.000000	100.008516
282.000000	99.965672
281.000000	99.969231
280.000000	99.963646
279.000000	99.974880
278.000000	99.988239
277.000000	99.972372
276.000000	99.973227
275.000000	99.985865
274.000000	99.995533
273.000000	99.989947
272.000000	99.968465
271.000000	99.961750
270.000000	99.972420
269.000000	99.969929
268.000000	99.973895
267.000000	99.970285
266.000000	100.003980
265.000000	99.979476
264.000000	99.958332
263.000000	99.970516
262.000000	99.976733
261.000000	99.995272
260.000000	99.995770
259.000000	99.979105
258.000000	99.976497
257.000000	99.950901
256.000000	99.968681
255.000000	99.989314
254.000000	99.992672
253.000000	99.980386
252.000000	99.964881
251.000000	99.966637
250.000000	99.998884
249.000000	99.975339
248.000000	99.993186
247.000000	99.944786
246.000000	99.985397
245.000000	99.975020
244.000000	99.993823
243.000000	100.015183
242.000000	100.004069
241.000000	100.002955
240.000000	99.977008
239.000000	99.970286
238.000000	99.974370
237.000000	99.973186
236.000000	100.011377
235.000000	99.982523
234.000000	99.977162
233.000000	99.993040
232.000000	99.982166
231.000000	99.983749
230.000000	99.988752
229.000000	100.018111
228.000000	99.985300
227.000000	100.015951
226.000000	100.012659
225.000000	99.990397
224.000000	99.975080
223.000000	99.989860
222.000000	99.991075
221.000000	100.008326
220.000000	100.042238
219.000000	100.036852
218.000000	100.016908
217.000000	100.011554
216.000000	100.027582
215.000000	99.980045
214.000000	99.989355
213.000000	100.012844
212.000000	100.052961
211.000000	100.053267
210.000000	100.050752
209.000000	100.031723
208.000000	100.052821
207.000000	100.059006
206.000000	100.036926
205.000000	100.048627
204.000000	100.062277
203.000000	100.022622
202.000000	100.036853
201.000000	100.062514
200.000000	100.099998
199.000000	100.032294
198.000000	100.090222
197.000000	100.107067
196.000000	100.068983
195.000000	100.096552
194.000000	100.116467
193.000000	100.133281
192.000000	100.176872
191.000000	100.232740
190.000000	100.345163
