PE UV       SUBTECH     SPECTRUM    ASCII       PEDS        4.00        
   -1
N2_4bar.Sample.Cycle9.ASC
26/05/13
17:25:06.00
26/05/13
17:25:06.00
Jinky Agarwala

190.000000
1
Lambda 850+
860L2410213
PerkinElmer UV WinLab 7.4.0.367 / 2.02.11 Lambda 800 UV/VIS, May 23 2018 11:23:04

0
0
1
0
0
UV/VIS
1
1
10
RBeamAtt,SBeamAtt,uv/vis detector
0
0
0
0
Fix
 
0
0.2
0
0
0
 
 
 
0
 
0
319.2
0
Front
100
 
S:100 R:100
 
0
0
0
 
0
 
 
 
0
 
 
0
0
0
0
0
 
 
 
 
0
0


0
0

0


#HDR
-1
-1
#GR
nm
%T
1.0
0.0
800.000000
-1.000000
611
8
100.338299
99.917023
#DATA
800.000000	99.938844
799.000000	99.984216
798.000000	99.982141
797.000000	100.022767
796.000000	100.055230
795.000000	100.020812
794.000000	99.920045
793.000000	99.933548
792.000000	99.975479
791.000000	99.954869
790.000000	99.965325
789.000000	99.976331
788.000000	99.952976
787.000000	99.969554
786.000000	99.935062
785.000000	99.997925
784.000000	99.917023
783.000000	99.980017
782.000000	99.974970
781.000000	100.021106
780.000000	99.969058
779.000000	99.959869
778.000000	100.000875
777.000000	99.969369
776.000000	99.979419
775.000000	99.971426
774.000000	99.972180
773.000000	100.001534
772.000000	99.987620
771.000000	100.014465
770.000000	99.971610
769.000000	100.006471
768.000000	99.982012
767.000000	99.985406
766.000000	99.999341
765.000000	99.967074
764.000000	99.980345
763.000000	99.964097
762.000000	99.986929
761.000000	99.949675
760.000000	99.992524
759.000000	99.974161
758.000000	99.934120
757.000000	99.961928
756.000000	99.956309
755.000000	99.986459
754.000000	99.988768
753.000000	99.980832
752.000000	99.964633
751.000000	99.956020
750.000000	99.954591
749.000000	99.979376
748.000000	99.951237
747.000000	99.997131
746.000000	99.976380
745.000000	99.953737
744.000000	99.987407
743.000000	99.998453
742.000000	99.957352
741.000000	99.938669
740.000000	99.973463
739.000000	99.970253
738.000000	99.988715
737.000000	99.981630
736.000000	99.969115
735.000000	99.963353
734.000000	99.951830
733.000000	99.952590
732.000000	99.972517
731.000000	99.985809
730.000000	99.967285
729.000000	99.998003
728.000000	99.987461
727.000000	99.962377
726.000000	99.966139
725.000000	99.974788
724.000000	99.953461
723.000000	99.959119
722.000000	99.968107
721.000000	99.966648
720.000000	99.977649
719.000000	99.975309
718.000000	99.970738
717.000000	99.985421
716.000000	99.981189
715.000000	99.964933
714.000000	99.975834
713.000000	99.960116
712.000000	99.955764
711.000000	99.972249
710.000000	99.976367
709.000000	99.980930
708.000000	99.991299
707.000000	99.984937
706.000000	99.986717
705.000000	99.995534
704.000000	100.001787
703.000000	99.975203
702.000000	99.957106
701.000000	99.949953
700.000000	99.940220
699.000000	99.947463
698.000000	99.976739
697.000000	99.996980
696.000000	100.007273
695.000000	99.991495
694.000000	99.993732
693.000000	99.991715
692.000000	99.972341
691.000000	99.952400
690.000000	99.963599
689.000000	99.989133
688.000000	99.973784
687.000000	99.958543
686.000000	99.976685
685.000000	99.971522
684.000000	99.971181
683.000000	99.962765
682.000000	99.977563
681.000000	99.951531
680.000000	99.969808
679.000000	99.988659
678.000000	99.973497
677.000000	99.970800
676.000000	99.981127
675.000000	99.981573
674.000000	99.972581
673.000000	99.956840
672.000000	99.984035
671.000000	99.998988
670.000000	99.990215
669.000000	99.987739
668.000000	99.978285
667.000000	99.975465
666.000000	99.970846
665.000000	99.966901
664.000000	99.970277
663.000000	99.983334
662.000000	99.974995
661.000000	99.978255
660.000000	99.971491
659.000000	99.971036
658.000000	99.995716
657.000000	99.998196
656.000000	99.976885
655.000000	99.962336
654.000000	99.971915
653.000000	99.978112
652.000000	99.984541
651.000000	99.992100
650.000000	99.979909
649.000000	99.966477
648.000000	99.961052
647.000000	99.971655
646.000000	99.978652
645.000000	99.963854
644.000000	99.952780
643.000000	99.971977
642.000000	99.973786
641.000000	99.960898
640.000000	99.983380
639.000000	99.987562
638.000000	99.966528
637.000000	99.965393
636.000000	99.964369
635.000000	99.971490
634.000000	99.967981
633.000000	99.984948
632.000000	99.992303
631.000000	99.964343
630.000000	99.953246
629.000000	99.958898
628.000000	99.967387
627.000000	99.963982
626.000000	99.952767
625.000000	99.937023
624.000000	99.947204
623.000000	99.962040
622.000000	99.959089
621.000000	99.954213
620.000000	99.981068
619.000000	99.976191
618.000000	99.966215
617.000000	99.963942
616.000000	99.952595
615.000000	99.960190
614.000000	99.964949
613.000000	99.962786
612.000000	99.968338
611.000000	99.985245
610.000000	99.973325
609.000000	99.987511
608.000000	99.981949
607.000000	99.957763
606.000000	99.964339
605.000000	99.959680
604.000000	99.967283
603.000000	99.965575
602.000000	99.983977
601.000000	99.988180
600.000000	99.971242
599.000000	99.970331
598.000000	99.974530
597.000000	99.960766
596.000000	99.969516
595.000000	99.971674
594.000000	99.973830
593.000000	99.970641
592.000000	99.981562
591.000000	99.970515
590.000000	99.956168
589.000000	99.978136
588.000000	99.991913
587.000000	99.959449
586.000000	99.979834
585.000000	99.977206
584.000000	99.958055
583.000000	99.973894
582.000000	99.998175
581.000000	99.986201
580.000000	99.976388
579.000000	99.992013
578.000000	99.991556
577.000000	99.971015
576.000000	99.957886
575.000000	99.972944
574.000000	99.968032
573.000000	99.985268
572.000000	99.976701
571.000000	99.989374
570.000000	99.977832
569.000000	99.978969
568.000000	99.984569
567.000000	99.979079
566.000000	99.987080
565.000000	99.983647
564.000000	99.981926
563.000000	99.982724
562.000000	99.960544
561.000000	99.959294
560.000000	99.968205
559.000000	99.965224
558.000000	99.958124
557.000000	99.965669
556.000000	99.970928
555.000000	99.987292
554.000000	99.975265
553.000000	99.969877
552.000000	99.975255
551.000000	99.976509
550.000000	99.964930
549.000000	99.960797
548.000000	99.963879
547.000000	99.967654
546.000000	99.963406
545.000000	99.961215
544.000000	99.990472
543.000000	99.971872
542.000000	99.977491
541.000000	99.980356
540.000000	99.956685
539.000000	99.970112
538.000000	99.991491
537.000000	99.949976
536.000000	99.988609
535.000000	99.991252
534.000000	99.962120
533.000000	99.977306
532.000000	99.970270
531.000000	99.967031
530.000000	99.960559
529.000000	99.951890
528.000000	99.986376
527.000000	99.987177
526.000000	99.967295
525.000000	99.981152
524.000000	99.970265
523.000000	99.980896
522.000000	99.979377
521.000000	99.970900
520.000000	99.991414
519.000000	99.984091
518.000000	99.970367
517.000000	99.975807
516.000000	99.975903
515.000000	99.986718
514.000000	99.986008
513.000000	99.967678
512.000000	99.976992
511.000000	99.977560
510.000000	99.975558
509.000000	99.966534
508.000000	99.976000
507.000000	99.976576
506.000000	99.962629
505.000000	99.981135
504.000000	99.954418
503.000000	99.981954
502.000000	99.973401
501.000000	99.979496
500.000000	99.975871
499.000000	99.970608
498.000000	99.988057
497.000000	99.983850
496.000000	99.985140
495.000000	99.956259
494.000000	99.972873
493.000000	99.975690
492.000000	99.964832
491.000000	99.974415
490.000000	99.968469
489.000000	99.963799
488.000000	99.972674
487.000000	99.994396
486.000000	99.992295
485.000000	99.961713
484.000000	99.987976
483.000000	99.967442
482.000000	99.956951
481.000000	99.968512
480.000000	99.985760
479.000000	99.987611
478.000000	99.986666
477.000000	99.967936
476.000000	99.966864
475.000000	99.974109
474.000000	99.961903
473.000000	99.960468
472.000000	99.969132
471.000000	99.998591
470.000000	99.993536
469.000000	99.969782
468.000000	99.968704
467.000000	99.957267
466.000000	99.953715
465.000000	99.982442
464.000000	99.981728
463.000000	99.985967
462.000000	99.964969
461.000000	99.980531
460.000000	99.970619
459.000000	99.978758
458.000000	99.973801
457.000000	99.972507
456.000000	99.973562
455.000000	99.979584
454.000000	99.993154
453.000000	99.975333
452.000000	99.974622
451.000000	99.975450
450.000000	99.986426
449.000000	99.978164
448.000000	100.007557
447.000000	99.960459
446.000000	99.995868
445.000000	100.008147
444.000000	100.015581
443.000000	99.981232
442.000000	99.963034
441.000000	99.977549
440.000000	99.984987
439.000000	99.978953
438.000000	99.992785
437.000000	99.980952
436.000000	99.965088
435.000000	99.986146
434.000000	99.961041
433.000000	99.966475
432.000000	99.978198
431.000000	99.987318
430.000000	99.990396
429.000000	99.979007
428.000000	99.965592
427.000000	99.967957
426.000000	99.959043
425.000000	99.959258
424.000000	99.975168
423.000000	99.978015
422.000000	99.964339
421.000000	99.971341
420.000000	99.967769
419.000000	99.958958
418.000000	99.970243
417.000000	99.968686
416.000000	99.972969
415.000000	99.978201
414.000000	99.977480
413.000000	99.966388
412.000000	99.994276
411.000000	99.971734
410.000000	99.966601
409.000000	99.982938
408.000000	99.974101
407.000000	99.957496
406.000000	99.965009
405.000000	99.983158
404.000000	99.973715
403.000000	99.986852
402.000000	99.991751
401.000000	99.970944
400.000000	99.974280
399.000000	99.983487
398.000000	100.007661
397.000000	100.002994
396.000000	99.976524
395.000000	99.999281
394.000000	99.986339
393.000000	99.958051
392.000000	99.948696
391.000000	99.960670
390.000000	99.991243
389.000000	99.988242
388.000000	99.998440
387.000000	99.997240
386.000000	99.982116
385.000000	99.974068
384.000000	99.972862
383.000000	99.955692
382.000000	99.948372
381.000000	99.953765
380.000000	99.963604
379.000000	99.949373
378.000000	99.977140
377.000000	100.013212
376.000000	100.000953
375.000000	100.005846
374.000000	100.040267
373.000000	100.029177
372.000000	99.974876
371.000000	100.004310
370.000000	99.979515
369.000000	99.978180
368.000000	100.009479
367.000000	99.971076
366.000000	99.932424
365.000000	99.964684
364.000000	99.974873
363.000000	99.974624
362.000000	99.981475
361.000000	99.950191
360.000000	99.964372
359.000000	99.990006
358.000000	100.002770
357.000000	100.023855
356.000000	100.005784
355.000000	99.965529
354.000000	99.956001
353.000000	99.955148
352.000000	99.964058
351.000000	99.985403
350.000000	99.958137
349.000000	99.919158
348.000000	99.964149
347.000000	100.002053
346.000000	100.008939
345.000000	99.975608
344.000000	99.969451
343.000000	99.970289
342.000000	99.975599
341.000000	99.963156
340.000000	99.933554
339.000000	99.947919
338.000000	99.990331
337.000000	100.007980
336.000000	100.015480
335.000000	99.996734
334.000000	99.956706
333.000000	99.987539
332.000000	99.964312
331.000000	99.935651
330.000000	99.986203
329.000000	99.981721
328.000000	99.933799
327.000000	99.998789
326.000000	99.984741
325.000000	99.960884
324.000000	99.947454
323.000000	99.952527
322.000000	99.976373
321.000000	100.002423
320.000000	99.981704
319.000000	99.985506
318.000000	99.981189
317.000000	100.013514
316.000000	99.994569
315.000000	99.950996
314.000000	99.972583
313.000000	99.985377
312.000000	100.018018
311.000000	99.954414
310.000000	99.965273
309.000000	99.957866
308.000000	99.950814
307.000000	99.997090
306.000000	99.960099
305.000000	99.963236
304.000000	99.960426
303.000000	99.995505
302.000000	99.989545
301.000000	99.985646
300.000000	99.973590
299.000000	99.957505
298.000000	99.955759
297.000000	99.969993
296.000000	99.961557
295.000000	99.975083
294.000000	99.965162
293.000000	99.972718
292.000000	99.970975
291.000000	99.956125
290.000000	99.990431
289.000000	99.977165
288.000000	99.961541
287.000000	99.974050
286.000000	99.970700
285.000000	99.998644
284.000000	99.978417
283.000000	99.960997
282.000000	99.956040
281.000000	99.950818
280.000000	99.980339
279.000000	99.969188
278.000000	99.967563
277.000000	99.965558
276.000000	99.971863
275.000000	99.951024
274.000000	100.001737
273.000000	99.984362
272.000000	99.959154
271.000000	99.952064
270.000000	99.975153
269.000000	99.986207
268.000000	99.957112
267.000000	99.968793
266.000000	99.969155
265.000000	99.965794
264.000000	99.967412
263.000000	99.972507
262.000000	100.008585
261.000000	100.001617
260.000000	100.000498
259.000000	99.992786
258.000000	99.983336
257.000000	99.967930
256.000000	99.971415
255.000000	100.001367
254.000000	100.002608
253.000000	99.993421
252.000000	99.969100
251.000000	99.984497
250.000000	100.013888
249.000000	99.988103
248.000000	100.000248
247.000000	99.971403
246.000000	99.997649
245.000000	99.978236
244.000000	99.974676
243.000000	99.994692
242.000000	99.986438
241.000000	99.989534
240.000000	99.988074
239.000000	99.972251
238.000000	99.989208
237.000000	99.977104
236.000000	99.991681
235.000000	100.003055
234.000000	99.995848
233.000000	99.998046
232.000000	100.005008
231.000000	99.995357
230.000000	99.984840
229.000000	100.014317
228.000000	99.973417
227.000000	99.995951
226.000000	100.009464
225.000000	99.990643
224.000000	99.985813
223.000000	100.007667
222.000000	100.022065
221.000000	100.025228
220.000000	100.043983
219.000000	100.010119
218.000000	100.027303
217.000000	100.015950
216.000000	100.018010
215.000000	99.989896
214.000000	100.016602
213.000000	100.018694
212.000000	100.074911
211.000000	100.042895
210.000000	100.040859
209.000000	100.027726
208.000000	100.051656
207.000000	100.054067
206.000000	100.028314
205.000000	100.037879
204.000000	100.039499
203.000000	100.047361
202.000000	100.043772
201.000000	100.064120
200.000000	100.086808
199.000000	100.069451
198.000000	100.109458
197.000000	100.087280
196.000000	100.036999
195.000000	100.074208
194.000000	100.099867
193.000000	100.160503
192.000000	100.140724
191.000000	100.247270
190.000000	100.338299
