PE UV       SUBTECH     SPECTRUM    ASCII       PEDS        4.00        
   -1
N2_4bar.Sample.Cycle1.ASC
26/05/13
17:25:06.00
26/05/13
17:25:06.00
Jinky Agarwala

190.000000
1
Lambda 850+
860L2410213
PerkinElmer UV WinLab 7.4.0.367 / 2.02.11 Lambda 800 UV/VIS, May 23 2018 11:23:04

0
0
1
0
0
UV/VIS
1
1
10
RBeamAtt,SBeamAtt,uv/vis detector
0
0
0
0
Fix
 
0
0.2
0
0
0
 
 
 
0
 
0
319.2
0
Front
100
 
S:100 R:100
 
0
0
0
 
0
 
 
 
0
 
 
0
0
0
0
0
 
 
 
 
0
0


0
0

0


#HDR
-1
-1
#GR
nm
%T
1.0
0.0
800.000000
-1.000000
611
8
100.300021
99.911434
#DATA
800.000000	99.969422
799.000000	99.993904
798.000000	99.973974
797.000000	100.050436
796.000000	100.002723
795.000000	99.973849
794.000000	99.921461
793.000000	99.911434
792.000000	99.970684
791.000000	99.959230
790.000000	99.942862
789.000000	99.936846
788.000000	99.936828
787.000000	99.950130
786.000000	99.944011
785.000000	99.990610
784.000000	99.944209
783.000000	99.933170
782.000000	100.035086
781.000000	100.037619
780.000000	100.005576
779.000000	100.004593
778.000000	99.963352
777.000000	99.981621
776.000000	99.963546
775.000000	99.977666
774.000000	99.983243
773.000000	99.968998
772.000000	99.982361
771.000000	99.955511
770.000000	99.918008
769.000000	99.999561
768.000000	99.997258
767.000000	99.977945
766.000000	99.968282
765.000000	99.937880
764.000000	99.995827
763.000000	99.943894
762.000000	99.932777
761.000000	99.968135
760.000000	100.013192
759.000000	99.962506
758.000000	99.954027
757.000000	100.016835
756.000000	99.965554
755.000000	99.960919
754.000000	99.937564
753.000000	99.957038
752.000000	99.961658
751.000000	99.993607
750.000000	99.949852
749.000000	99.972649
748.000000	99.964034
747.000000	99.963257
746.000000	99.950332
745.000000	99.946008
744.000000	99.953937
743.000000	99.978453
742.000000	99.944093
741.000000	99.917894
740.000000	99.972025
739.000000	99.941612
738.000000	99.948109
737.000000	99.962043
736.000000	99.985388
735.000000	99.940546
734.000000	99.919385
733.000000	99.942288
732.000000	99.965424
731.000000	99.975719
730.000000	99.981147
729.000000	99.991456
728.000000	99.983355
727.000000	99.954498
726.000000	99.968360
725.000000	99.975343
724.000000	99.944354
723.000000	99.959230
722.000000	99.956106
721.000000	99.969427
720.000000	99.975536
719.000000	99.974642
718.000000	99.962950
717.000000	99.970731
716.000000	99.954809
715.000000	99.946231
714.000000	99.962248
713.000000	99.987522
712.000000	99.950750
711.000000	99.944499
710.000000	99.949835
709.000000	99.969331
708.000000	99.963524
707.000000	99.958716
706.000000	99.985378
705.000000	99.997990
704.000000	99.998995
703.000000	99.988160
702.000000	99.966154
701.000000	99.952411
700.000000	99.951952
699.000000	99.961212
698.000000	99.961083
697.000000	99.966439
696.000000	99.975047
695.000000	99.981534
694.000000	99.977836
693.000000	99.967755
692.000000	99.967302
691.000000	99.960912
690.000000	99.961807
689.000000	99.978939
688.000000	99.957539
687.000000	99.930756
686.000000	99.968054
685.000000	99.971634
684.000000	99.960640
683.000000	99.943363
682.000000	99.961745
681.000000	99.956468
680.000000	99.964645
679.000000	99.982484
678.000000	99.983492
677.000000	99.977538
676.000000	99.983261
675.000000	99.976180
674.000000	99.965052
673.000000	99.962123
672.000000	99.972455
671.000000	99.991228
670.000000	99.991340
669.000000	99.973003
668.000000	99.957695
667.000000	99.964886
666.000000	99.971634
665.000000	99.978947
664.000000	99.960932
663.000000	99.946400
662.000000	99.962155
661.000000	99.983100
660.000000	99.970589
659.000000	99.958301
658.000000	99.964828
657.000000	99.963582
656.000000	99.953433
655.000000	99.960532
654.000000	99.973719
653.000000	99.966266
652.000000	99.966824
651.000000	99.968850
650.000000	99.969412
649.000000	99.960156
648.000000	99.947731
647.000000	99.967363
646.000000	99.981815
645.000000	99.972439
644.000000	99.962721
643.000000	99.977287
642.000000	99.958757
641.000000	99.946771
640.000000	99.965970
639.000000	99.980439
638.000000	99.974105
637.000000	99.971048
636.000000	99.977377
635.000000	99.973753
634.000000	99.977372
633.000000	99.981666
632.000000	99.987888
631.000000	99.977361
630.000000	99.968982
629.000000	99.970560
628.000000	99.962744
627.000000	99.954015
626.000000	99.945631
625.000000	99.945292
624.000000	99.957401
623.000000	99.973825
622.000000	99.953196
621.000000	99.952966
620.000000	99.969959
619.000000	99.958278
618.000000	99.948189
617.000000	99.945799
616.000000	99.953955
615.000000	99.946806
614.000000	99.951223
613.000000	99.958929
612.000000	99.963231
611.000000	99.974575
610.000000	99.968671
609.000000	99.987511
608.000000	99.957426
607.000000	99.941981
606.000000	99.962068
605.000000	99.954341
604.000000	99.955582
603.000000	99.956827
602.000000	99.971022
601.000000	99.976586
600.000000	99.965787
599.000000	99.969876
598.000000	99.982262
597.000000	99.980440
596.000000	99.960302
595.000000	99.959729
594.000000	99.964272
593.000000	99.966203
592.000000	99.953221
591.000000	99.965847
590.000000	99.962657
589.000000	99.964471
588.000000	99.967653
587.000000	99.955576
586.000000	99.950780
585.000000	99.973217
584.000000	99.954521
583.000000	99.969448
582.000000	99.981754
581.000000	99.950962
580.000000	99.954943
579.000000	99.967141
578.000000	99.979460
577.000000	99.960289
576.000000	99.948984
575.000000	99.957419
574.000000	99.953989
573.000000	99.956376
572.000000	99.954658
571.000000	99.988117
570.000000	99.972233
569.000000	99.987998
568.000000	99.966281
567.000000	99.960788
566.000000	99.970386
565.000000	99.966721
564.000000	99.993251
563.000000	99.979406
562.000000	99.959172
561.000000	99.947402
560.000000	99.959398
559.000000	99.971058
558.000000	99.968192
557.000000	99.953195
556.000000	99.954560
555.000000	99.973896
554.000000	99.965188
553.000000	99.966899
552.000000	99.968611
551.000000	99.972270
550.000000	99.968712
549.000000	99.974209
548.000000	99.970988
547.000000	99.968113
546.000000	99.958015
545.000000	99.963395
544.000000	99.965563
543.000000	99.968198
542.000000	99.973817
541.000000	99.976679
540.000000	99.947033
539.000000	99.967123
538.000000	99.966655
537.000000	99.949056
536.000000	99.974802
535.000000	99.989295
534.000000	99.965919
533.000000	99.982490
532.000000	99.972459
531.000000	99.964956
530.000000	99.952141
529.000000	99.949352
528.000000	99.993534
527.000000	99.980015
526.000000	99.961863
525.000000	99.956754
524.000000	99.955340
523.000000	99.967003
522.000000	99.965822
521.000000	99.949336
520.000000	99.963800
519.000000	99.977704
518.000000	99.950379
517.000000	99.970457
516.000000	99.968919
515.000000	99.976232
514.000000	99.971317
513.000000	99.952392
512.000000	99.971036
511.000000	99.982702
510.000000	99.960238
509.000000	99.978938
508.000000	99.973542
507.000000	99.963459
506.000000	99.963215
505.000000	99.968128
504.000000	99.969651
503.000000	99.961564
502.000000	99.967543
501.000000	99.972700
500.000000	99.954904
499.000000	99.962060
498.000000	99.979393
497.000000	99.965477
496.000000	99.985257
495.000000	99.983042
494.000000	99.978252
493.000000	99.962717
492.000000	99.944970
491.000000	99.944157
490.000000	99.960061
489.000000	99.960296
488.000000	99.972557
487.000000	99.963688
486.000000	99.991594
485.000000	99.949924
484.000000	99.975018
483.000000	99.943053
482.000000	99.946335
481.000000	99.954284
480.000000	99.973154
479.000000	99.977209
478.000000	99.978830
477.000000	99.970628
476.000000	99.968620
475.000000	99.966728
474.000000	99.964013
473.000000	99.974897
472.000000	99.957982
471.000000	99.968758
470.000000	99.969913
469.000000	99.949441
468.000000	99.947174
467.000000	99.963388
466.000000	99.971146
465.000000	99.979142
464.000000	99.979489
463.000000	99.961675
462.000000	99.962374
461.000000	99.953039
460.000000	99.956224
459.000000	99.970851
458.000000	99.959168
457.000000	99.950796
456.000000	99.967897
455.000000	99.957517
454.000000	99.957510
453.000000	99.978284
452.000000	99.982295
451.000000	99.975450
450.000000	99.990321
449.000000	99.979581
448.000000	100.012044
447.000000	99.950427
446.000000	99.999292
445.000000	99.988547
444.000000	99.987134
443.000000	99.976157
442.000000	99.957601
441.000000	100.002127
440.000000	99.982268
439.000000	99.975051
438.000000	99.974926
437.000000	99.960011
436.000000	99.951715
435.000000	99.970870
434.000000	99.961396
433.000000	99.961026
432.000000	99.955211
431.000000	99.969540
430.000000	99.955064
429.000000	99.954812
428.000000	99.952303
427.000000	99.940661
426.000000	99.961061
425.000000	99.984677
424.000000	99.986574
423.000000	99.980867
422.000000	99.979555
421.000000	99.974671
420.000000	99.952308
419.000000	99.964668
418.000000	99.965839
417.000000	99.961066
416.000000	99.946176
415.000000	99.957594
414.000000	99.973429
413.000000	99.984267
412.000000	99.994634
411.000000	99.989147
410.000000	99.975309
409.000000	99.944162
408.000000	99.971952
407.000000	99.999284
406.000000	99.977549
405.000000	99.963808
404.000000	99.950775
403.000000	99.955655
402.000000	99.951101
401.000000	99.943801
400.000000	99.952867
399.000000	99.950941
398.000000	99.979290
397.000000	100.002395
396.000000	99.991855
395.000000	99.989576
394.000000	99.980468
393.000000	99.990891
392.000000	99.962601
391.000000	99.964627
390.000000	99.984166
389.000000	99.989202
388.000000	99.988479
387.000000	99.970595
386.000000	99.951510
385.000000	99.953538
384.000000	99.950647
383.000000	99.950889
382.000000	99.930842
381.000000	99.936232
380.000000	99.959520
379.000000	99.967206
378.000000	99.949875
377.000000	99.956912
376.000000	99.966282
375.000000	100.009186
374.000000	100.040984
373.000000	100.013991
372.000000	99.977029
371.000000	99.964442
370.000000	99.979515
369.000000	99.997003
368.000000	100.000120
367.000000	99.975517
366.000000	99.931463
365.000000	99.953392
364.000000	99.981486
363.000000	99.967168
362.000000	99.974738
361.000000	99.940807
360.000000	99.963530
359.000000	100.012161
358.000000	99.975432
357.000000	99.969759
356.000000	99.990480
355.000000	99.974689
354.000000	99.933338
353.000000	99.932118
352.000000	99.943916
351.000000	99.953435
350.000000	99.940282
349.000000	99.913970
348.000000	99.966201
347.000000	100.030918
346.000000	100.019932
345.000000	99.966069
344.000000	99.938782
343.000000	99.956400
342.000000	99.964366
341.000000	99.947210
340.000000	99.972938
339.000000	99.961695
338.000000	99.996253
337.000000	100.036150
336.000000	99.997218
335.000000	99.987905
334.000000	99.981860
333.000000	100.017422
332.000000	99.949916
331.000000	99.920653
330.000000	99.969744
329.000000	99.975911
328.000000	99.969381
327.000000	100.004601
326.000000	100.006055
325.000000	100.036209
324.000000	99.953629
323.000000	99.934119
322.000000	99.988610
321.000000	99.987883
320.000000	99.959530
319.000000	99.930791
318.000000	99.943326
317.000000	100.002896
316.000000	99.963916
315.000000	99.929752
314.000000	99.958210
313.000000	99.943923
312.000000	99.974122
311.000000	99.958284
310.000000	99.978099
309.000000	99.997821
308.000000	99.981222
307.000000	99.993453
306.000000	99.985931
305.000000	99.958625
304.000000	99.977057
303.000000	100.024543
302.000000	99.996596
301.000000	99.961075
300.000000	99.945233
299.000000	99.929500
298.000000	99.975259
297.000000	100.000244
296.000000	99.979009
295.000000	99.982656
294.000000	99.962228
293.000000	99.934303
292.000000	99.969996
291.000000	99.975244
290.000000	99.974606
289.000000	99.958873
288.000000	99.957118
287.000000	99.965932
286.000000	99.977348
285.000000	99.987800
284.000000	99.992230
283.000000	99.977536
282.000000	99.957028
281.000000	99.978498
280.000000	99.980463
279.000000	99.986017
278.000000	99.955554
277.000000	99.958992
276.000000	99.949428
275.000000	99.948172
274.000000	99.966871
273.000000	99.978901
272.000000	99.952574
271.000000	99.974542
270.000000	99.980122
269.000000	99.970675
268.000000	99.969792
267.000000	99.982718
266.000000	99.970647
265.000000	99.980596
264.000000	99.978357
263.000000	99.976861
262.000000	99.988429
261.000000	99.979098
260.000000	99.983455
259.000000	99.972389
258.000000	99.975626
257.000000	99.967184
256.000000	99.990057
255.000000	99.992793
254.000000	99.978514
253.000000	99.972317
252.000000	99.980393
251.000000	99.976435
250.000000	99.980284
249.000000	99.989590
248.000000	99.993186
247.000000	99.975983
246.000000	99.994184
245.000000	100.009151
244.000000	99.979740
243.000000	99.968646
242.000000	99.966342
241.000000	99.988918
240.000000	99.975286
239.000000	99.985143
238.000000	100.008830
237.000000	99.968656
236.000000	99.989846
235.000000	100.004277
234.000000	99.975818
233.000000	99.992918
232.000000	100.005130
231.000000	99.967010
230.000000	99.991564
229.000000	99.989476
228.000000	99.982605
227.000000	100.009939
226.000000	99.988815
225.000000	99.986088
224.000000	99.959783
223.000000	100.004946
222.000000	100.005330
221.000000	99.988318
220.000000	100.021929
219.000000	100.006371
218.000000	100.004383
217.000000	99.988194
216.000000	99.995088
215.000000	99.987623
214.000000	100.005576
213.000000	100.037642
212.000000	100.058321
211.000000	100.049553
210.000000	100.016446
209.000000	100.030176
208.000000	100.029777
207.000000	100.024304
206.000000	100.026357
205.000000	100.043253
204.000000	100.053983
203.000000	100.042598
202.000000	100.046566
201.000000	100.048592
200.000000	100.041049
199.000000	100.024592
198.000000	100.090222
197.000000	100.084434
196.000000	100.052178
195.000000	100.070687
194.000000	100.132392
193.000000	100.118861
192.000000	100.180073
191.000000	100.251936
190.000000	100.300021
