PE UV       SUBTECH     SPECTRUM    ASCII       PEDS        4.00        
   -1
N2_4bar.Sample.Cycle10.ASC
26/05/13
17:25:06.00
26/05/13
17:25:06.00
Jinky Agarwala

190.000000
1
Lambda 850+
860L2410213
PerkinElmer UV WinLab 7.4.0.367 / 2.02.11 Lambda 800 UV/VIS, May 23 2018 11:23:04

0
0
1
0
0
UV/VIS
1
1
10
RBeamAtt,SBeamAtt,uv/vis detector
0
0
0
0
Fix
 
0
0.2
0
0
0
 
 
 
0
 
0
319.2
0
Front
100
 
S:100 R:100
 
0
0
0
 
0
 
 
 
0
 
 
0
0
0
0
0
 
 
 
 
0
0


0
0

0


#HDR
-1
-1
#GR
nm
%T
1.0
0.0
800.000000
-1.000000
611
8
100.342259
99.909954
#DATA
800.000000	99.976386
799.000000	100.006422
798.000000	100.023739
797.000000	99.981372
796.000000	99.991176
795.000000	100.006538
794.000000	99.950872
793.000000	99.950760
792.000000	99.969921
791.000000	99.965879
790.000000	99.973939
789.000000	99.977967
788.000000	99.947848
787.000000	99.958642
786.000000	99.969987
785.000000	99.974997
784.000000	99.971395
783.000000	99.945728
782.000000	100.037709
781.000000	100.045383
780.000000	99.975509
779.000000	99.977912
778.000000	99.968603
777.000000	99.962148
776.000000	99.980952
775.000000	99.981827
774.000000	99.998905
773.000000	99.983787
772.000000	100.036701
771.000000	99.946854
770.000000	99.968102
769.000000	99.997916
768.000000	99.952397
767.000000	99.996818
766.000000	99.990122
765.000000	99.960269
764.000000	100.014385
763.000000	99.959266
762.000000	99.934864
761.000000	99.960443
760.000000	99.989996
759.000000	99.997031
758.000000	99.983722
757.000000	99.970401
756.000000	99.986023
755.000000	99.959157
754.000000	99.976435
753.000000	99.976096
752.000000	99.958684
751.000000	99.984458
750.000000	99.909954
749.000000	99.967134
748.000000	99.970874
747.000000	99.962926
746.000000	99.961259
745.000000	99.988628
744.000000	99.984646
743.000000	99.991934
742.000000	99.938679
741.000000	99.945631
740.000000	99.989717
739.000000	99.946810
738.000000	99.974774
737.000000	99.970011
736.000000	99.994354
735.000000	99.974093
734.000000	99.934777
733.000000	99.930878
732.000000	99.957445
731.000000	99.989911
730.000000	99.984696
729.000000	99.979584
728.000000	99.967709
727.000000	99.973475
726.000000	99.992007
725.000000	99.981119
724.000000	99.966790
723.000000	99.957008
722.000000	99.947327
721.000000	99.965981
720.000000	99.973424
719.000000	99.960405
718.000000	99.980195
717.000000	99.972623
716.000000	99.958594
715.000000	99.955359
714.000000	99.966146
713.000000	99.966132
712.000000	99.935930
711.000000	99.969017
710.000000	99.963101
709.000000	99.972120
708.000000	99.951811
707.000000	99.941309
706.000000	99.962273
705.000000	99.999553
704.000000	100.000782
703.000000	99.976544
702.000000	99.966489
701.000000	99.934537
700.000000	99.929605
699.000000	99.952493
698.000000	99.977746
697.000000	99.990267
696.000000	99.983328
695.000000	99.990040
694.000000	99.996306
693.000000	99.976152
692.000000	99.963718
691.000000	99.983984
690.000000	100.009632
689.000000	99.994847
688.000000	99.964037
687.000000	99.944650
686.000000	99.966149
685.000000	99.970962
684.000000	99.965911
683.000000	99.976111
682.000000	99.952770
681.000000	99.946707
680.000000	99.973063
679.000000	99.982372
678.000000	99.991577
677.000000	99.982255
676.000000	99.988204
675.000000	99.986404
674.000000	99.974379
673.000000	99.966731
672.000000	99.984260
671.000000	99.982343
670.000000	99.965246
669.000000	99.972665
668.000000	99.968946
667.000000	99.970963
666.000000	99.990207
665.000000	99.996060
664.000000	99.969151
663.000000	99.955183
662.000000	99.968575
661.000000	99.971608
660.000000	99.959659
659.000000	99.976558
658.000000	100.004284
657.000000	100.005750
656.000000	99.987033
655.000000	99.975530
654.000000	99.980261
653.000000	99.987928
652.000000	99.985218
651.000000	99.987359
650.000000	99.983408
649.000000	99.954851
648.000000	99.957778
647.000000	99.970187
646.000000	99.978201
645.000000	99.986445
644.000000	99.975260
643.000000	99.969717
642.000000	99.941356
641.000000	99.954682
640.000000	99.992990
639.000000	99.988354
638.000000	99.967207
637.000000	99.967994
636.000000	99.969573
635.000000	99.970698
634.000000	99.969112
633.000000	99.982572
632.000000	99.990831
631.000000	99.968758
630.000000	99.960152
629.000000	99.968296
628.000000	99.978144
627.000000	100.000227
626.000000	99.977913
625.000000	99.946878
624.000000	99.963972
623.000000	99.973371
622.000000	99.964302
621.000000	99.970986
620.000000	99.980955
619.000000	99.973243
618.000000	99.959640
617.000000	99.955437
616.000000	99.953729
615.000000	99.954632
614.000000	99.963587
613.000000	99.975153
612.000000	99.985247
611.000000	99.985699
610.000000	99.974801
609.000000	99.974569
608.000000	99.963330
607.000000	99.965143
606.000000	99.978081
605.000000	99.979102
604.000000	99.973077
603.000000	99.970461
602.000000	99.978181
601.000000	99.988407
600.000000	99.977494
599.000000	99.962828
598.000000	99.968276
597.000000	99.968499
596.000000	99.983165
595.000000	99.979523
594.000000	99.977129
593.000000	99.963927
592.000000	99.973367
591.000000	99.968807
590.000000	99.946718
589.000000	99.971532
588.000000	99.978017
587.000000	99.956146
586.000000	99.965934
585.000000	99.986665
584.000000	99.974924
583.000000	99.962721
582.000000	99.979246
581.000000	99.957918
580.000000	99.971255
579.000000	99.998745
578.000000	99.995550
577.000000	99.982541
576.000000	99.978201
575.000000	99.980821
574.000000	99.973170
573.000000	99.965969
572.000000	99.953287
571.000000	99.980119
570.000000	99.973375
569.000000	100.008115
568.000000	99.988227
567.000000	99.972791
566.000000	99.979990
565.000000	99.966836
564.000000	99.992793
563.000000	99.977461
562.000000	99.978385
561.000000	99.977474
560.000000	99.960085
559.000000	99.992908
558.000000	99.978032
557.000000	99.958231
556.000000	99.962915
555.000000	99.968515
554.000000	99.962784
553.000000	99.959683
552.000000	99.960935
551.000000	99.974332
550.000000	99.972265
549.000000	99.959536
548.000000	99.988304
547.000000	99.971210
546.000000	99.958015
545.000000	99.960412
544.000000	99.983126
543.000000	99.966131
542.000000	99.981970
541.000000	99.969902
540.000000	99.955536
539.000000	99.994827
538.000000	99.978958
537.000000	99.951931
536.000000	99.977909
535.000000	99.995396
534.000000	99.973633
533.000000	99.984218
532.000000	99.983867
531.000000	99.976253
530.000000	99.968286
529.000000	99.971273
528.000000	99.979910
527.000000	99.991221
526.000000	99.997226
525.000000	99.971670
524.000000	99.980562
523.000000	99.973486
522.000000	99.968834
521.000000	99.966147
520.000000	99.972618
519.000000	99.985600
518.000000	99.979663
517.000000	99.971388
516.000000	99.973808
515.000000	99.980193
514.000000	99.986008
513.000000	99.958460
512.000000	99.968584
511.000000	99.974404
510.000000	99.971582
509.000000	99.975895
508.000000	99.969795
507.000000	99.966152
506.000000	99.986762
505.000000	99.979612
504.000000	99.961097
503.000000	99.970470
502.000000	99.970355
501.000000	99.990744
500.000000	99.978799
499.000000	99.977634
498.000000	99.973539
497.000000	99.956934
496.000000	99.991458
495.000000	99.975673
494.000000	99.973808
493.000000	99.994974
492.000000	99.935974
491.000000	99.986098
490.000000	99.974074
489.000000	99.968120
488.000000	99.985753
487.000000	99.969643
486.000000	99.972798
485.000000	99.990662
484.000000	99.969181
483.000000	99.973160
482.000000	99.961035
481.000000	99.975393
480.000000	99.985643
479.000000	99.971599
478.000000	99.967602
477.000000	99.956936
476.000000	99.972718
475.000000	99.966025
474.000000	99.966241
473.000000	99.982522
472.000000	99.980752
471.000000	99.984614
470.000000	99.991773
469.000000	99.981187
468.000000	99.976587
467.000000	99.974925
466.000000	99.971028
465.000000	99.981145
464.000000	99.970765
463.000000	99.976887
462.000000	99.974405
461.000000	99.988909
460.000000	99.958702
459.000000	99.969671
458.000000	99.970615
457.000000	99.964365
456.000000	100.001180
455.000000	99.962119
454.000000	99.960697
453.000000	99.980054
452.000000	99.990085
451.000000	99.977574
450.000000	99.979226
449.000000	99.963293
448.000000	99.982171
447.000000	99.943581
446.000000	99.979575
445.000000	99.993742
444.000000	99.988078
443.000000	99.960222
442.000000	99.956656
441.000000	99.986411
440.000000	99.992198
439.000000	99.989477
438.000000	99.975162
437.000000	99.959064
436.000000	99.979171
435.000000	100.000829
434.000000	99.959264
433.000000	99.975715
432.000000	99.948576
431.000000	99.970962
430.000000	99.977117
429.000000	99.967740
428.000000	99.971643
427.000000	99.967838
426.000000	99.978512
425.000000	99.990973
424.000000	100.008673
423.000000	99.978133
422.000000	99.958396
421.000000	99.979189
420.000000	99.950762
419.000000	99.962051
418.000000	100.000595
417.000000	100.004524
416.000000	99.972254
415.000000	99.974509
414.000000	99.979625
413.000000	99.980453
412.000000	99.981518
411.000000	99.972927
410.000000	99.965766
409.000000	99.962297
408.000000	99.965149
407.000000	99.971226
406.000000	99.960830
405.000000	99.955805
404.000000	99.969533
403.000000	99.994621
402.000000	99.970350
401.000000	99.964008
400.000000	99.976792
399.000000	99.950223
398.000000	99.961095
397.000000	100.002874
396.000000	100.000719
395.000000	99.984305
394.000000	99.973637
393.000000	99.981183
392.000000	99.960563
391.000000	99.980095
390.000000	100.034187
389.000000	100.014637
388.000000	100.002640
387.000000	99.987158
386.000000	99.985717
385.000000	100.008764
384.000000	99.987752
383.000000	99.948248
382.000000	99.934564
381.000000	99.942957
380.000000	99.962403
379.000000	99.961222
378.000000	99.958328
377.000000	99.965958
376.000000	99.947458
375.000000	99.970293
374.000000	100.037997
373.000000	100.026905
372.000000	99.976671
371.000000	99.979048
370.000000	99.978796
369.000000	99.996283
368.000000	100.004199
367.000000	99.959915
366.000000	99.924622
365.000000	99.946785
364.000000	99.987497
363.000000	100.006374
362.000000	100.002286
361.000000	99.972449
360.000000	99.996148
359.000000	100.016135
358.000000	99.994460
357.000000	99.986386
356.000000	99.996385
355.000000	99.987224
354.000000	99.960220
353.000000	99.968169
352.000000	99.971657
351.000000	99.976717
350.000000	99.961274
349.000000	99.956683
348.000000	99.983100
347.000000	100.022464
346.000000	100.017395
345.000000	99.957979
344.000000	99.944698
343.000000	99.956521
342.000000	99.968835
341.000000	99.957236
340.000000	99.949501
339.000000	99.967132
338.000000	99.998187
337.000000	99.994197
336.000000	100.015964
335.000000	100.017174
334.000000	99.988753
333.000000	100.028189
332.000000	100.013428
331.000000	99.976897
330.000000	100.013071
329.000000	100.020094
328.000000	99.960909
327.000000	99.964041
326.000000	99.978565
325.000000	99.953013
324.000000	99.972637
323.000000	99.984620
322.000000	99.972374
321.000000	99.965225
320.000000	99.968254
319.000000	99.955189
318.000000	99.959243
317.000000	99.992278
316.000000	99.963916
315.000000	99.945323
314.000000	99.989009
313.000000	99.993353
312.000000	99.956347
311.000000	99.910038
310.000000	99.965273
309.000000	99.980386
308.000000	99.985341
307.000000	100.001940
306.000000	99.981687
305.000000	99.953893
304.000000	99.968317
303.000000	99.972906
302.000000	99.965110
301.000000	99.968495
300.000000	99.957404
299.000000	99.955801
298.000000	99.983425
297.000000	99.977800
296.000000	99.956675
295.000000	99.996214
294.000000	99.978242
293.000000	99.967824
292.000000	99.984937
291.000000	99.969484
290.000000	99.988837
289.000000	99.994230
288.000000	99.959207
287.000000	99.965194
286.000000	99.959497
285.000000	100.008996
284.000000	100.007030
283.000000	99.994199
282.000000	99.972093
281.000000	99.959345
280.000000	99.984420
279.000000	99.992575
278.000000	99.964468
277.000000	99.983646
276.000000	99.969880
275.000000	99.963175
274.000000	99.991811
273.000000	99.987340
272.000000	99.987957
271.000000	99.960757
270.000000	99.971177
269.000000	99.960361
268.000000	99.962706
267.000000	99.964193
266.000000	99.994527
265.000000	99.993656
264.000000	99.969526
263.000000	99.973004
262.000000	99.989300
261.000000	99.999378
260.000000	100.007961
259.000000	99.983210
258.000000	100.010446
257.000000	99.959975
256.000000	99.986205
255.000000	100.000124
254.000000	99.979507
253.000000	99.995779
252.000000	99.967115
251.000000	99.974947
250.000000	99.990452
249.000000	99.976702
248.000000	99.992443
247.000000	99.971403
246.000000	100.006559
245.000000	100.006430
244.000000	99.969734
243.000000	100.005184
242.000000	99.998397
241.000000	99.992489
240.000000	99.986229
239.000000	99.970532
238.000000	99.999755
237.000000	99.963758
236.000000	100.015169
235.000000	100.004033
234.000000	99.989497
233.000000	99.976066
232.000000	100.019422
231.000000	99.991325
230.000000	99.996210
229.000000	99.999021
228.000000	99.992772
227.000000	100.012147
226.000000	99.990659
225.000000	99.969590
224.000000	99.987787
223.000000	100.011871
222.000000	100.026776
221.000000	100.028956
220.000000	100.005233
219.000000	100.034853
218.000000	100.011272
217.000000	100.002889
216.000000	100.031360
215.000000	100.014272
214.000000	100.026107
213.000000	100.031792
212.000000	100.045304
211.000000	100.030347
210.000000	100.023899
209.000000	100.010832
208.000000	100.053857
207.000000	100.054717
206.000000	100.016049
205.000000	100.041025
204.000000	100.049374
203.000000	100.038762
202.000000	100.043240
201.000000	100.073223
200.000000	100.082232
199.000000	100.030672
198.000000	100.079520
197.000000	100.121568
196.000000	100.046757
195.000000	100.076239
194.000000	100.103781
193.000000	100.132607
192.000000	100.160999
191.000000	100.215678
190.000000	100.342259
