PE UV       SUBTECH     SPECTRUM    ASCII       PEDS        4.00        
   -1
N2_8bar.Sample.Cycle8.ASC
26/05/13
16:26:18.00
26/05/13
16:26:18.00
Jinky Agarwala

190.000000
1
Lambda 850+
860L2410213
PerkinElmer UV WinLab 7.4.0.367 / 2.02.11 Lambda 800 UV/VIS, May 23 2018 11:23:04

0
0
1
0
0
UV/VIS
1
1
10
RBeamAtt,SBeamAtt,uv/vis detector
0
0
0
0
Fix
 
0
0.2
0
0
0
 
 
 
0
 
0
319.2
0
Front
100
 
S:100 R:100
 
0
0
0
 
0
 
 
 
0
 
 
0
0
0
0
0
 
 
 
 
0
0


0
0

0


#HDR
-1
-1
#GR
nm
%T
1.0
0.0
800.000000
-1.000000
611
8
100.095643
99.946829
#DATA
800.000000	100.047227
799.000000	100.029826
798.000000	100.069258
797.000000	100.095643
796.000000	100.044228
795.000000	100.043368
794.000000	100.009695
793.000000	99.979411
792.000000	99.965344
791.000000	99.987791
790.000000	100.022790
789.000000	100.024105
788.000000	100.015602
787.000000	100.009166
786.000000	100.005675
785.000000	100.032319
784.000000	99.946829
783.000000	99.986896
782.000000	100.036070
781.000000	100.090110
780.000000	100.021102
779.000000	100.031711
778.000000	100.043540
777.000000	99.988404
776.000000	100.048387
775.000000	99.993760
774.000000	100.021577
773.000000	100.024100
772.000000	100.004820
771.000000	100.007890
770.000000	100.003398
769.000000	100.033670
768.000000	100.007239
767.000000	99.997147
766.000000	100.023706
765.000000	100.014378
764.000000	100.023718
763.000000	100.030633
762.000000	99.996046
761.000000	100.007252
760.000000	100.048591
759.000000	100.026169
758.000000	100.000550
757.000000	100.026958
756.000000	99.983602
755.000000	99.985909
754.000000	100.024336
753.000000	100.044394
752.000000	100.018179
751.000000	100.008928
750.000000	99.971675
749.000000	100.019411
748.000000	100.027250
747.000000	100.011917
746.000000	100.016666
745.000000	100.010600
744.000000	100.022976
743.000000	100.042542
742.000000	99.992155
741.000000	100.002873
740.000000	100.026537
739.000000	99.989716
738.000000	99.991259
737.000000	100.007857
736.000000	100.011181
735.000000	100.014171
734.000000	99.969105
733.000000	99.968319
732.000000	99.998005
731.000000	100.000222
730.000000	100.001220
729.000000	100.032288
728.000000	100.014980
727.000000	100.006548
726.000000	100.018540
725.000000	100.028544
724.000000	100.009108
723.000000	99.998223
722.000000	100.004889
721.000000	100.021790
720.000000	100.015568
719.000000	100.008230
718.000000	100.021696
717.000000	100.007901
716.000000	100.030943
715.000000	100.013804
714.000000	100.014143
713.000000	100.028409
712.000000	100.022397
711.000000	100.025856
710.000000	100.011482
709.000000	100.016840
708.000000	100.023871
707.000000	100.009038
706.000000	100.035718
705.000000	100.036510
704.000000	100.038645
703.000000	100.020329
702.000000	100.007484
701.000000	99.987377
700.000000	99.983239
699.000000	99.997094
698.000000	100.006822
697.000000	100.023716
696.000000	100.035359
695.000000	100.020144
694.000000	100.030783
693.000000	100.024967
692.000000	100.004927
691.000000	100.026432
690.000000	100.008176
689.000000	100.001680
688.000000	99.996303
687.000000	99.994398
686.000000	100.009864
685.000000	99.992264
684.000000	99.996412
683.000000	99.997757
682.000000	100.004375
681.000000	100.003029
680.000000	100.006734
679.000000	100.019200
678.000000	100.033466
677.000000	100.020328
676.000000	100.023030
675.000000	100.024719
674.000000	100.012698
673.000000	99.998988
672.000000	100.010906
671.000000	100.023618
670.000000	100.013609
669.000000	99.996625
668.000000	100.008101
667.000000	100.024648
666.000000	100.019924
665.000000	100.010583
664.000000	100.012835
663.000000	100.019481
662.000000	100.006983
661.000000	100.011041
660.000000	100.003719
659.000000	100.007551
658.000000	100.027507
657.000000	100.027623
656.000000	100.012290
655.000000	100.011051
654.000000	100.023686
653.000000	100.024370
652.000000	100.019409
651.000000	100.014559
650.000000	100.022349
649.000000	100.014786
648.000000	100.005870
647.000000	100.020440
646.000000	100.024736
645.000000	100.010392
644.000000	100.008586
643.000000	100.020566
642.000000	99.980678
641.000000	99.986664
640.000000	100.015489
639.000000	100.003618
638.000000	100.010630
637.000000	100.014137
636.000000	100.008483
635.000000	100.005204
634.000000	99.985518
633.000000	100.008148
632.000000	100.015168
631.000000	100.004188
630.000000	100.013924
629.000000	100.027062
628.000000	100.022309
627.000000	100.023445
626.000000	100.002718
625.000000	99.990146
624.000000	100.006571
623.000000	100.010651
622.000000	100.011559
621.000000	100.003627
620.000000	100.013604
619.000000	100.006916
618.000000	99.985715
617.000000	99.992176
616.000000	100.007712
615.000000	100.007599
614.000000	99.988656
613.000000	99.995008
612.000000	100.009306
611.000000	100.002611
610.000000	100.016232
609.000000	100.015327
608.000000	99.995232
607.000000	100.001930
606.000000	100.019080
605.000000	100.008746
604.000000	100.023402
603.000000	100.020905
602.000000	100.012841
601.000000	100.026369
600.000000	100.026598
599.000000	100.004774
598.000000	100.008642
597.000000	100.024109
596.000000	100.032532
595.000000	100.019794
594.000000	100.016499
593.000000	100.007624
592.000000	100.015252
591.000000	100.024135
590.000000	100.012182
589.000000	100.006263
588.000000	100.003759
587.000000	99.998405
586.000000	100.001139
585.000000	100.018463
584.000000	100.021087
583.000000	100.030096
582.000000	100.022237
581.000000	100.014483
580.000000	100.007643
579.000000	100.006275
578.000000	100.007075
577.000000	100.001027
576.000000	100.006505
575.000000	100.016096
574.000000	100.003425
573.000000	100.009707
572.000000	100.010165
571.000000	100.022509
570.000000	100.016683
569.000000	100.038519
568.000000	100.017488
567.000000	100.020464
566.000000	100.012692
565.000000	100.021500
564.000000	100.024823
563.000000	100.021395
562.000000	100.001830
561.000000	100.000686
560.000000	100.002745
559.000000	99.999199
558.000000	100.012128
557.000000	99.998169
556.000000	100.006524
555.000000	100.002519
554.000000	100.024620
553.000000	100.010079
552.000000	100.013289
551.000000	100.002636
550.000000	100.007335
549.000000	100.004127
548.000000	100.001835
547.000000	100.016632
546.000000	99.998279
545.000000	100.008950
544.000000	100.032601
543.000000	100.015959
542.000000	100.011139
541.000000	100.003561
540.000000	99.988511
539.000000	100.026210
538.000000	100.008279
537.000000	99.989535
536.000000	100.010125
535.000000	100.012892
534.000000	100.003224
533.000000	100.038936
532.000000	100.022471
531.000000	100.018098
530.000000	100.012109
529.000000	100.002423
528.000000	100.015587
527.000000	100.041009
526.000000	100.012712
525.000000	100.012720
524.000000	100.006364
523.000000	100.015167
522.000000	100.009037
521.000000	100.007536
520.000000	100.011255
519.000000	100.014051
518.000000	100.009529
517.000000	100.020936
516.000000	100.023049
515.000000	100.030992
514.000000	100.005713
513.000000	100.006651
512.000000	100.014365
511.000000	100.026648
510.000000	100.017425
509.000000	100.018254
508.000000	100.018966
507.000000	100.026352
506.000000	100.015698
505.000000	100.009374
504.000000	100.008671
503.000000	100.018281
502.000000	99.996719
501.000000	100.028940
500.000000	100.034554
499.000000	100.023537
498.000000	100.025993
497.000000	99.999766
496.000000	100.037209
495.000000	100.012163
494.000000	100.002339
493.000000	100.011571
492.000000	100.013202
491.000000	100.030959
490.000000	99.991708
489.000000	100.012495
488.000000	100.013430
487.000000	100.016229
486.000000	99.999416
485.000000	100.000000
484.000000	100.025916
483.000000	99.984596
482.000000	100.008983
481.000000	99.989154
480.000000	99.993580
479.000000	100.020921
478.000000	100.011696
477.000000	100.011234
476.000000	99.998244
475.000000	100.002812
474.000000	100.001407
473.000000	100.005865
472.000000	100.016080
471.000000	100.014682
470.000000	100.013516
469.000000	99.994826
468.000000	99.994823
467.000000	100.012125
466.000000	99.991874
465.000000	100.011431
464.000000	100.007898
463.000000	100.014504
462.000000	100.020877
461.000000	100.016283
460.000000	100.013569
459.000000	100.000590
458.000000	99.988317
457.000000	99.998348
456.000000	100.016760
455.000000	100.011683
454.000000	100.013809
453.000000	100.018176
452.000000	100.011095
451.000000	100.008970
450.000000	100.026676
449.000000	99.997757
448.000000	100.022906
447.000000	99.992800
446.000000	100.008501
445.000000	100.041324
444.000000	100.037655
443.000000	100.000354
442.000000	99.997166
441.000000	100.017606
440.000000	100.025771
439.000000	100.016435
438.000000	100.015021
437.000000	100.040936
436.000000	100.010059
435.000000	100.040616
434.000000	100.012079
433.000000	100.002962
432.000000	99.983767
431.000000	100.005571
430.000000	100.007351
429.000000	100.003558
428.000000	100.016255
427.000000	100.005222
426.000000	99.997863
425.000000	100.034090
424.000000	100.008079
423.000000	100.013904
422.000000	100.025795
421.000000	100.031156
420.000000	99.999524
419.000000	99.984535
418.000000	100.019878
417.000000	100.009644
416.000000	100.006668
415.000000	100.004288
414.000000	99.993804
413.000000	100.016091
412.000000	100.036965
411.000000	100.027908
410.000000	100.011690
409.000000	99.992483
408.000000	99.991049
407.000000	100.011701
406.000000	100.000000
405.000000	99.985905
404.000000	99.989964
403.000000	99.991633
402.000000	100.009086
401.000000	100.003228
400.000000	100.015193
399.000000	100.012803
398.000000	100.014964
397.000000	100.043350
396.000000	100.041681
395.000000	100.040017
394.000000	100.015698
393.000000	100.020255
392.000000	100.033803
391.000000	100.024941
390.000000	100.022311
389.000000	100.017636
388.000000	100.016201
387.000000	100.010922
386.000000	99.997480
385.000000	100.014647
384.000000	100.017291
383.000000	100.003362
382.000000	100.004683
381.000000	100.012009
380.000000	100.004925
379.000000	99.959905
378.000000	99.957971
377.000000	100.008213
376.000000	100.016680
375.000000	99.999284
374.000000	100.022822
373.000000	100.052854
372.000000	100.044266
371.000000	100.015205
370.000000	100.009823
369.000000	100.041961
368.000000	100.042954
367.000000	100.021603
366.000000	99.992678
365.000000	100.003724
364.000000	100.033542
363.000000	100.019002
362.000000	100.018766
361.000000	100.039823
360.000000	100.040924
359.000000	100.021433
358.000000	100.008430
357.000000	100.008434
356.000000	100.004459
355.000000	100.032422
354.000000	100.006268
353.000000	99.998191
352.000000	100.002653
351.000000	99.997467
350.000000	99.980818
349.000000	99.974903
348.000000	100.031747
347.000000	100.054348
346.000000	100.034186
345.000000	99.970658
344.000000	99.966916
343.000000	99.995169
342.000000	99.986350
341.000000	100.000604
340.000000	99.994926
339.000000	99.973053
338.000000	99.999637
337.000000	100.029621
336.000000	100.042934
335.000000	100.023585
334.000000	99.998549
333.000000	100.011735
332.000000	100.012219
331.000000	99.980768
330.000000	100.048531
329.000000	100.050478
328.000000	99.992254
327.000000	100.040681
326.000000	100.017802
325.000000	100.007750
324.000000	99.998789
323.000000	100.008114
322.000000	100.033563
321.000000	100.022901
320.000000	100.001091
319.000000	99.996860
318.000000	100.002050
317.000000	100.036198
316.000000	99.986483
315.000000	99.979602
314.000000	100.014010
313.000000	100.024171
312.000000	100.006288
311.000000	99.968562
310.000000	99.981366
309.000000	100.016103
308.000000	100.020111
307.000000	100.040735
306.000000	99.998908
305.000000	100.004247
304.000000	100.018087
303.000000	100.023449
302.000000	100.006808
301.000000	100.013137
300.000000	100.013387
299.000000	99.994277
298.000000	99.987812
297.000000	99.998292
296.000000	99.975836
295.000000	100.005374
294.000000	99.995477
293.000000	100.005383
292.000000	100.027800
291.000000	99.990196
290.000000	99.996074
289.000000	99.996931
288.000000	99.998403
287.000000	100.006641
286.000000	100.036810
285.000000	100.047321
284.000000	100.025653
283.000000	100.047643
282.000000	100.008891
281.000000	99.996046
280.000000	99.998763
279.000000	99.985893
278.000000	100.013495
277.000000	100.012018
276.000000	99.979052
275.000000	99.972970
274.000000	100.007073
273.000000	99.997518
272.000000	100.006828
271.000000	100.009935
270.000000	99.997018
269.000000	99.992669
268.000000	99.997514
267.000000	99.989929
266.000000	100.012562
265.000000	99.993034
264.000000	99.977113
263.000000	99.982584
262.000000	100.017792
261.000000	100.012068
260.000000	100.009703
259.000000	100.008084
258.000000	100.019897
257.000000	99.996147
256.000000	100.001989
255.000000	100.035413
254.000000	100.007079
253.000000	99.996400
252.000000	100.034126
251.000000	99.994543
250.000000	100.020336
249.000000	99.993928
248.000000	100.025397
247.000000	99.973879
246.000000	100.012375
245.000000	100.026958
244.000000	99.991723
243.000000	100.022590
242.000000	100.015041
241.000000	100.022164
240.000000	99.986721
239.000000	99.989440
238.000000	100.030781
237.000000	99.999633
236.000000	100.020552
235.000000	100.014910
234.000000	99.987787
233.000000	100.003297
232.000000	100.015635
231.000000	100.001711
230.000000	100.017116
229.000000	99.999755
228.000000	100.002450
227.000000	100.010552
226.000000	100.025073
225.000000	99.998030
224.000000	99.990871
223.000000	100.005565
222.000000	100.031363
221.000000	100.032684
220.000000	100.011712
219.000000	100.021986
218.000000	100.014653
217.000000	100.004772
216.000000	100.007305
215.000000	99.978024
214.000000	100.017616
213.000000	100.035353
212.000000	100.021312
211.000000	100.047633
210.000000	100.006681
209.000000	99.985170
208.000000	100.021750
207.000000	100.036262
206.000000	100.011352
205.000000	100.016646
204.000000	100.033443
203.000000	99.997751
202.000000	99.992283
201.000000	100.015662
200.000000	100.031762
199.000000	100.024457
198.000000	100.064618
197.000000	100.042962
196.000000	99.983737
195.000000	100.009885
194.000000	99.987584
193.000000	99.999596
192.000000	100.004535
191.000000	100.044122
190.000000	100.051873
