PE UV       SUBTECH     SPECTRUM    ASCII       PEDS        4.00        
   -1
N2_8bar.Sample.Cycle7.ASC
26/05/13
16:26:18.00
26/05/13
16:26:18.00
Jinky Agarwala

190.000000
1
Lambda 850+
860L2410213
PerkinElmer UV WinLab 7.4.0.367 / 2.02.11 Lambda 800 UV/VIS, May 23 2018 11:23:04

0
0
1
0
0
UV/VIS
1
1
10
RBeamAtt,SBeamAtt,uv/vis detector
0
0
0
0
Fix
 
0
0.2
0
0
0
 
 
 
0
 
0
319.2
0
Front
100
 
S:100 R:100
 
0
0
0
 
0
 
 
 
0
 
 
0
0
0
0
0
 
 
 
 
0
0


0
0

0


#HDR
-1
-1
#GR
nm
%T
1.0
0.0
800.000000
-1.000000
611
8
100.115758
99.924653
#DATA
800.000000	100.045268
799.000000	100.040168
798.000000	100.032995
797.000000	100.035294
796.000000	100.054685
795.000000	100.056879
794.000000	99.984423
793.000000	100.037039
792.000000	100.005122
791.000000	99.989971
790.000000	99.983099
789.000000	100.020942
788.000000	100.036768
787.000000	100.053580
786.000000	99.983411
785.000000	99.991593
784.000000	99.956219
783.000000	99.924653
782.000000	100.029074
781.000000	100.066270
780.000000	100.046795
779.000000	100.047785
778.000000	100.012799
777.000000	99.998250
776.000000	100.055064
775.000000	100.061089
774.000000	100.010624
773.000000	100.046119
772.000000	100.012818
771.000000	100.011396
770.000000	99.997150
769.000000	99.992542
768.000000	100.000000
767.000000	100.021506
766.000000	100.015146
765.000000	100.015365
764.000000	100.045460
763.000000	99.998243
762.000000	99.982645
761.000000	100.004505
760.000000	100.037928
759.000000	100.044091
758.000000	100.011108
757.000000	100.012984
756.000000	100.030925
755.000000	100.006825
754.000000	100.016407
753.000000	100.039547
752.000000	100.028315
751.000000	100.035823
750.000000	100.004739
749.000000	100.033197
748.000000	100.022285
747.000000	100.023834
746.000000	99.999338
745.000000	100.038092
744.000000	100.018558
743.000000	100.039890
742.000000	99.996464
741.000000	99.996795
740.000000	100.017581
739.000000	99.994250
738.000000	100.029320
737.000000	100.023239
736.000000	100.017823
735.000000	99.995129
734.000000	99.980621
733.000000	99.991914
732.000000	100.005763
731.000000	100.014413
730.000000	100.024398
729.000000	100.038834
728.000000	100.010764
727.000000	100.006104
726.000000	99.996891
725.000000	100.020547
724.000000	100.009108
723.000000	100.006999
722.000000	99.992666
721.000000	100.036798
720.000000	100.037919
719.000000	100.025358
718.000000	100.043058
717.000000	100.023593
716.000000	100.026491
715.000000	99.998108
714.000000	100.017484
713.000000	100.035762
712.000000	100.005794
711.000000	100.006353
710.000000	100.025974
709.000000	100.035018
708.000000	100.012828
707.000000	100.008257
706.000000	100.030472
705.000000	100.022665
704.000000	100.033284
703.000000	100.017313
702.000000	100.003798
701.000000	99.979222
700.000000	99.990837
699.000000	100.014531
698.000000	100.026504
697.000000	100.025954
696.000000	100.036142
695.000000	100.023166
694.000000	100.019253
693.000000	100.014667
692.000000	100.001008
691.000000	100.017808
690.000000	100.022177
689.000000	100.016916
688.000000	99.983755
687.000000	99.987339
686.000000	100.006389
685.000000	99.998991
684.000000	99.996860
683.000000	99.990803
682.000000	99.989006
681.000000	99.971278
680.000000	99.991133
679.000000	100.011902
678.000000	100.016733
677.000000	99.998540
676.000000	100.020334
675.000000	100.015281
674.000000	100.002023
673.000000	100.010453
672.000000	100.007195
671.000000	100.011246
670.000000	100.005061
669.000000	99.996175
668.000000	100.009451
667.000000	100.040067
666.000000	100.043450
665.000000	100.037264
664.000000	100.013060
663.000000	100.003266
662.000000	100.012390
661.000000	100.021294
660.000000	100.019832
659.000000	100.013637
658.000000	100.025928
657.000000	100.031006
656.000000	100.024355
655.000000	100.008457
654.000000	100.002256
653.000000	100.016811
652.000000	100.017265
651.000000	100.014221
650.000000	100.009707
649.000000	99.998758
648.000000	99.999436
647.000000	100.017730
646.000000	100.012650
645.000000	100.008472
644.000000	99.990624
643.000000	99.986666
642.000000	99.986102
641.000000	99.996158
640.000000	100.011984
639.000000	100.015378
638.000000	100.004184
637.000000	99.995024
636.000000	99.998303
635.000000	100.002036
634.000000	100.003621
633.000000	100.030103
632.000000	100.035090
631.000000	100.025695
630.000000	100.000113
629.000000	99.990602
628.000000	100.013929
627.000000	100.030241
626.000000	100.002945
625.000000	99.983350
624.000000	99.997961
623.000000	100.016770
622.000000	100.000453
621.000000	99.984133
620.000000	100.005782
619.000000	100.006916
618.000000	100.003515
617.000000	100.010886
616.000000	100.002041
615.000000	99.991040
614.000000	100.009075
613.000000	100.015657
612.000000	100.000113
611.000000	100.009307
610.000000	100.018162
609.000000	100.022820
608.000000	100.012148
607.000000	100.006926
606.000000	100.015218
605.000000	99.998751
604.000000	100.004203
603.000000	99.993183
602.000000	100.019319
601.000000	100.025800
600.000000	100.013185
599.000000	100.005343
598.000000	100.021831
597.000000	100.012851
596.000000	100.018768
595.000000	100.024345
594.000000	100.018092
593.000000	100.013087
592.000000	100.008195
591.000000	99.996016
590.000000	99.981442
589.000000	99.994192
588.000000	100.005923
587.000000	99.982117
586.000000	100.002051
585.000000	100.014019
584.000000	100.014020
583.000000	100.012198
582.000000	100.010947
581.000000	100.019843
580.000000	100.017224
579.000000	100.015631
578.000000	100.030353
577.000000	100.016318
576.000000	100.011755
575.000000	99.998516
574.000000	99.988583
573.000000	100.008679
572.000000	99.996459
571.000000	100.017253
570.000000	100.019768
569.000000	100.021717
568.000000	100.002858
567.000000	99.995198
566.000000	100.002172
565.000000	100.026074
564.000000	100.031687
563.000000	100.028488
562.000000	100.019213
561.000000	100.001601
560.000000	99.996226
559.000000	100.008694
558.000000	100.011556
557.000000	99.999886
556.000000	100.004349
555.000000	100.000343
554.000000	100.024849
553.000000	100.010423
552.000000	100.001489
551.000000	100.006646
550.000000	99.996791
549.000000	100.002636
548.000000	100.011008
547.000000	100.022137
546.000000	100.023287
545.000000	100.011131
544.000000	100.034897
543.000000	100.001148
542.000000	100.005857
541.000000	100.020334
540.000000	99.995749
539.000000	100.015979
538.000000	100.008854
537.000000	99.988730
536.000000	100.000115
535.000000	100.021640
534.000000	100.002418
533.000000	100.017395
532.000000	100.024084
531.000000	100.007608
530.000000	100.000577
529.000000	99.997693
528.000000	100.022861
527.000000	100.014671
526.000000	100.010632
525.000000	100.021508
524.000000	100.017239
523.000000	100.010420
522.000000	100.007647
521.000000	100.007188
520.000000	100.014619
519.000000	100.018696
518.000000	100.003021
517.000000	100.004536
516.000000	100.007799
515.000000	100.002214
514.000000	100.010494
513.000000	100.009568
512.000000	100.006073
511.000000	100.014610
510.000000	100.001871
509.000000	99.999883
508.000000	100.003512
507.000000	100.011946
506.000000	100.008786
505.000000	100.006913
504.000000	100.015936
503.000000	99.994024
502.000000	100.015116
501.000000	100.015232
500.000000	100.002343
499.000000	99.989578
498.000000	100.035008
497.000000	99.988297
496.000000	100.031359
495.000000	99.996725
494.000000	100.007951
493.000000	99.981300
492.000000	99.984461
491.000000	99.981542
490.000000	99.986337
489.000000	100.006773
488.000000	100.007124
487.000000	100.029073
486.000000	100.014126
485.000000	100.026964
484.000000	100.030936
483.000000	99.977945
482.000000	100.005950
481.000000	99.986938
480.000000	100.013190
479.000000	100.023141
478.000000	100.027837
477.000000	99.997426
476.000000	100.000117
475.000000	100.005389
474.000000	100.001524
473.000000	100.017126
472.000000	100.000235
471.000000	100.013977
470.000000	100.012105
469.000000	99.998589
468.000000	100.009883
467.000000	100.005298
466.000000	100.001060
465.000000	100.025454
464.000000	100.000943
463.000000	100.018042
462.000000	100.007195
461.000000	100.017699
460.000000	100.004130
459.000000	100.021714
458.000000	100.002832
457.000000	99.995280
456.000000	100.008144
455.000000	99.970380
454.000000	99.993036
453.000000	100.002951
452.000000	100.021719
451.000000	100.018767
450.000000	100.030335
449.000000	100.019475
448.000000	100.037193
447.000000	99.983948
446.000000	100.025856
445.000000	100.024204
444.000000	100.037891
443.000000	100.024788
442.000000	100.010275
441.000000	100.038048
440.000000	100.026362
439.000000	99.990423
438.000000	100.003193
437.000000	100.006980
436.000000	100.010651
435.000000	100.037656
434.000000	99.990053
433.000000	99.994432
432.000000	99.991587
431.000000	99.989333
430.000000	99.994783
429.000000	100.004626
428.000000	100.015424
427.000000	100.006290
426.000000	100.010803
425.000000	100.033021
424.000000	100.038496
423.000000	100.019133
422.000000	100.019851
421.000000	100.021762
420.000000	99.990485
419.000000	100.005115
418.000000	100.024163
417.000000	99.999643
416.000000	99.987735
415.000000	99.989160
414.000000	99.994757
413.000000	100.003218
412.000000	100.026471
411.000000	100.038523
410.000000	100.014672
409.000000	100.007039
408.000000	100.008832
407.000000	100.013253
406.000000	100.003463
405.000000	100.000358
404.000000	99.996535
403.000000	100.021993
402.000000	100.007054
401.000000	99.984575
400.000000	100.008613
399.000000	100.026205
398.000000	100.029688
397.000000	100.045386
396.000000	100.041202
395.000000	100.021446
394.000000	100.020970
393.000000	100.028285
392.000000	100.010309
391.000000	100.011991
390.000000	100.041264
389.000000	100.011878
388.000000	100.013441
387.000000	100.018723
386.000000	100.003841
385.000000	100.017528
384.000000	100.004323
383.000000	99.988473
382.000000	99.963500
381.000000	99.966855
380.000000	99.982823
379.000000	100.011011
378.000000	100.033099
377.000000	100.022972
376.000000	99.972478
375.000000	99.990694
374.000000	100.041701
373.000000	100.068399
372.000000	100.002632
371.000000	99.992098
370.000000	100.011021
369.000000	100.004796
368.000000	100.026156
367.000000	100.012001
366.000000	99.994839
365.000000	100.015856
364.000000	100.031499
363.000000	100.042093
362.000000	100.031036
361.000000	100.010347
360.000000	100.049349
359.000000	100.032149
358.000000	100.001084
357.000000	100.035180
356.000000	100.033017
355.000000	100.023865
354.000000	99.987704
353.000000	99.963467
352.000000	99.989628
351.000000	99.986368
350.000000	99.974182
349.000000	99.986003
348.000000	100.016538
347.000000	100.053864
346.000000	100.052910
345.000000	99.994445
344.000000	99.994566
343.000000	99.998309
342.000000	99.971251
341.000000	99.979222
340.000000	99.978375
339.000000	99.988158
338.000000	100.022361
337.000000	100.042920
336.000000	100.063010
335.000000	100.020803
334.000000	100.009917
333.000000	100.067388
332.000000	100.040648
331.000000	99.997581
330.000000	100.032434
329.000000	100.042731
328.000000	100.008593
327.000000	100.000848
326.000000	99.985226
325.000000	99.978807
324.000000	99.967431
323.000000	99.993581
322.000000	100.019023
321.000000	99.983642
320.000000	99.987762
319.000000	99.990337
318.000000	100.010008
317.000000	100.035715
316.000000	99.988656
315.000000	99.979722
314.000000	100.000966
313.000000	100.010152
312.000000	100.017655
311.000000	99.989118
310.000000	100.012342
309.000000	99.991041
308.000000	100.014417
307.000000	100.028975
306.000000	100.039174
305.000000	100.028999
304.000000	99.987618
303.000000	100.020412
302.000000	100.011184
301.000000	100.023720
300.000000	100.019108
299.000000	99.985510
298.000000	100.011213
297.000000	100.021225
296.000000	100.031609
295.000000	100.017100
294.000000	100.026159
293.000000	100.012601
292.000000	99.978323
291.000000	99.962376
290.000000	99.992271
289.000000	99.989074
288.000000	100.000123
287.000000	99.971959
286.000000	99.992860
285.000000	100.024030
284.000000	100.031326
283.000000	100.029129
282.000000	99.997036
281.000000	99.992709
280.000000	100.005317
279.000000	100.006682
278.000000	100.011638
277.000000	100.024531
276.000000	100.003842
275.000000	100.014011
274.000000	100.038092
273.000000	100.039593
272.000000	100.007822
271.000000	99.989196
270.000000	99.999503
269.000000	99.973408
268.000000	100.023495
267.000000	100.004973
266.000000	100.009079
265.000000	100.009205
264.000000	99.995025
263.000000	100.001493
262.000000	100.022147
261.000000	100.015801
260.000000	100.031348
259.000000	100.017661
258.000000	100.015544
257.000000	99.991920
256.000000	100.001616
255.000000	100.015781
254.000000	100.002484
253.000000	99.995034
252.000000	100.036484
251.000000	99.996775
250.000000	100.016988
249.000000	100.012640
248.000000	99.998389
247.000000	100.010275
246.000000	100.026484
245.000000	99.999382
244.000000	100.000124
243.000000	100.030119
242.000000	100.004192
241.000000	100.023765
240.000000	100.004057
239.000000	100.005648
238.000000	100.031149
237.000000	99.994613
236.000000	100.034131
235.000000	100.031898
234.000000	100.017465
233.000000	100.007205
232.000000	99.990472
231.000000	100.003299
230.000000	100.008436
229.000000	100.021904
228.000000	99.996692
227.000000	100.001595
226.000000	100.025565
225.000000	99.992613
224.000000	99.973106
223.000000	100.000371
222.000000	100.011776
221.000000	100.008575
220.000000	100.027162
219.000000	100.022111
218.000000	99.990482
217.000000	100.021979
216.000000	100.013602
215.000000	99.979919
214.000000	100.003929
213.000000	100.013226
212.000000	100.035988
211.000000	100.042255
210.000000	100.012335
209.000000	100.004385
208.000000	100.012558
207.000000	100.005589
206.000000	100.015005
205.000000	99.992791
204.000000	100.025148
203.000000	100.014155
202.000000	99.996408
201.000000	100.000937
200.000000	100.049259
199.000000	100.027024
198.000000	100.064889
197.000000	100.066273
196.000000	100.015857
195.000000	100.020448
194.000000	100.018219
193.000000	100.045146
192.000000	100.009871
191.000000	100.054786
190.000000	100.115758
