PE UV       SUBTECH     SPECTRUM    ASCII       PEDS        4.00        
   -1
N2_8bar.Sample.Cycle2.ASC
26/05/13
16:26:18.00
26/05/13
16:26:18.00
Jinky Agarwala

190.000000
1
Lambda 850+
860L2410213
PerkinElmer UV WinLab 7.4.0.367 / 2.02.11 Lambda 800 UV/VIS, May 23 2018 11:23:04

0
0
1
0
0
UV/VIS
1
1
10
RBeamAtt,SBeamAtt,uv/vis detector
0
0
0
0
Fix
 
0
0.2
0
0
0
 
 
 
0
 
0
319.2
0
Front
100
 
S:100 R:100
 
0
0
0
 
0
 
 
 
0
 
 
0
0
0
0
0
 
 
 
 
0
0


0
0

0


#HDR
-1
-1
#GR
nm
%T
1.0
0.0
800.000000
-1.000000
611
8
100.080063
99.927640
#DATA
800.000000	100.017846
799.000000	100.037990
798.000000	100.040836
797.000000	100.046297
796.000000	100.054141
795.000000	100.040643
794.000000	99.964707
793.000000	99.974182
792.000000	100.027245
791.000000	99.967623
790.000000	99.990950
789.000000	100.000764
788.000000	100.019312
787.000000	99.968245
786.000000	99.927640
785.000000	100.027405
784.000000	99.986025
783.000000	99.999454
782.000000	100.045797
781.000000	100.061349
780.000000	100.033566
779.000000	100.002406
778.000000	100.033585
777.000000	99.969697
776.000000	100.059005
775.000000	100.004160
774.000000	100.053449
773.000000	99.989155
772.000000	100.011065
771.000000	99.966140
770.000000	99.982790
769.000000	100.042005
768.000000	100.018756
767.000000	100.037307
766.000000	100.015036
765.000000	99.969708
764.000000	100.038981
763.000000	99.962340
762.000000	100.019112
761.000000	100.026261
760.000000	100.044634
759.000000	100.022650
758.000000	100.008909
757.000000	100.014304
756.000000	99.953118
755.000000	99.996587
754.000000	100.017949
753.000000	100.006940
752.000000	100.010467
751.000000	100.029430
750.000000	99.963519
749.000000	100.018418
748.000000	100.026919
747.000000	99.987421
746.000000	99.998565
745.000000	100.005962
744.000000	100.006407
743.000000	100.009613
742.000000	99.976024
741.000000	99.970826
740.000000	100.018355
739.000000	100.014597
738.000000	100.012613
737.000000	100.006197
736.000000	100.008967
735.000000	99.994575
734.000000	99.986823
733.000000	99.963556
732.000000	100.003657
731.000000	100.038361
730.000000	100.023178
729.000000	100.040942
728.000000	100.024856
727.000000	100.023639
726.000000	100.014321
725.000000	100.016771
724.000000	99.977564
723.000000	99.979115
722.000000	100.017891
721.000000	99.991773
720.000000	99.983320
719.000000	99.982538
718.000000	100.008345
717.000000	100.021145
716.000000	100.006456
715.000000	99.991873
714.000000	99.992316
713.000000	100.025513
712.000000	100.027856
711.000000	99.997994
710.000000	99.980157
709.000000	100.006134
708.000000	100.018629
707.000000	100.009038
706.000000	100.012836
705.000000	100.017864
704.000000	100.022338
703.000000	100.021111
702.000000	100.001005
701.000000	99.979222
700.000000	99.973965
699.000000	99.985357
698.000000	99.994073
697.000000	100.025730
696.000000	100.035471
695.000000	100.016899
694.000000	100.023171
693.000000	100.026759
692.000000	100.001568
691.000000	100.001120
690.000000	100.008624
689.000000	100.028679
688.000000	100.006834
687.000000	99.997087
686.000000	100.016701
685.000000	100.019508
684.000000	99.992599
683.000000	99.985532
682.000000	99.990689
681.000000	99.972961
680.000000	100.002694
679.000000	100.034134
678.000000	100.028749
677.000000	100.004155
676.000000	100.001910
675.000000	100.012247
674.000000	100.004158
673.000000	99.998651
672.000000	100.004722
671.000000	100.018782
670.000000	100.008885
669.000000	100.002700
668.000000	100.008439
667.000000	100.027686
666.000000	100.016660
665.000000	100.000113
664.000000	99.994258
663.000000	99.999887
662.000000	100.019261
661.000000	100.021069
660.000000	100.006874
659.000000	100.001127
658.000000	100.019277
657.000000	100.021422
656.000000	100.000226
655.000000	99.974064
654.000000	99.990525
653.000000	100.009703
652.000000	100.002257
651.000000	100.000113
650.000000	99.996501
649.000000	99.992550
648.000000	99.987243
647.000000	99.998645
646.000000	99.998193
645.000000	99.990964
644.000000	99.996950
643.000000	100.006554
642.000000	99.984859
641.000000	99.988134
640.000000	100.008140
639.000000	100.010742
638.000000	100.009725
637.000000	100.007238
636.000000	99.998869
635.000000	100.010861
634.000000	100.012332
633.000000	100.012788
632.000000	100.015734
631.000000	100.005320
630.000000	99.985962
629.000000	100.001359
628.000000	100.017892
627.000000	100.019934
626.000000	100.006909
625.000000	99.993770
624.000000	100.001020
623.000000	100.004759
622.000000	99.993880
621.000000	99.984020
620.000000	99.992405
619.000000	100.004875
618.000000	100.004988
617.000000	100.010772
616.000000	99.999320
615.000000	99.996257
614.000000	100.004878
613.000000	100.001588
612.000000	100.018157
611.000000	100.032008
610.000000	100.012146
609.000000	100.008288
608.000000	99.995118
607.000000	99.996707
606.000000	100.007382
605.000000	99.990232
604.000000	100.008293
603.000000	100.015111
602.000000	100.010568
601.000000	100.027846
600.000000	100.018641
599.000000	99.993066
598.000000	99.994201
597.000000	100.009553
596.000000	100.017631
595.000000	100.000228
594.000000	100.011606
593.000000	100.011152
592.000000	99.999886
591.000000	100.005692
590.000000	100.004212
589.000000	100.010021
588.000000	100.019249
587.000000	100.004898
586.000000	100.000342
585.000000	100.016298
584.000000	99.991907
583.000000	99.992134
582.000000	100.013684
581.000000	100.006614
580.000000	100.005361
579.000000	100.022705
578.000000	100.014378
577.000000	100.007075
576.000000	99.991098
575.000000	99.999543
574.000000	100.000799
573.000000	100.023411
572.000000	99.999201
571.000000	100.018853
570.000000	100.008113
569.000000	100.030061
568.000000	100.007887
567.000000	100.007545
566.000000	100.011777
565.000000	100.008691
564.000000	100.008007
563.000000	100.005034
562.000000	99.983532
561.000000	99.994969
560.000000	100.010980
559.000000	100.002860
558.000000	99.994966
557.000000	100.013389
556.000000	99.991988
555.000000	100.013853
554.000000	100.010993
553.000000	99.998053
552.000000	100.003780
551.000000	99.991979
550.000000	100.011919
549.000000	100.001949
548.000000	100.007912
547.000000	100.013076
546.000000	99.986923
545.000000	100.000574
544.000000	100.002066
543.000000	100.008726
542.000000	100.009991
541.000000	100.013671
540.000000	100.001953
539.000000	100.013910
538.000000	100.001380
537.000000	99.982750
536.000000	100.005868
535.000000	100.006561
534.000000	100.003915
533.000000	100.016819
532.000000	100.012215
531.000000	100.007493
530.000000	100.001845
529.000000	99.985002
528.000000	100.016049
527.000000	100.016404
526.000000	100.022766
525.000000	100.002660
524.000000	100.000000
523.000000	100.015167
522.000000	100.011354
521.000000	100.011941
520.000000	100.006613
519.000000	100.013471
518.000000	100.007321
517.000000	100.014655
516.000000	100.003725
515.000000	100.008156
514.000000	99.986824
513.000000	100.003034
512.000000	100.018219
511.000000	100.017531
510.000000	100.008771
509.000000	100.010765
508.000000	100.013580
507.000000	99.994730
506.000000	99.993557
505.000000	100.001992
504.000000	100.004804
503.000000	99.998477
502.000000	99.995782
501.000000	100.007967
500.000000	100.013119
499.000000	99.996604
498.000000	100.029740
497.000000	100.020597
496.000000	100.032061
495.000000	100.012397
494.000000	100.015434
493.000000	99.996143
492.000000	99.989485
491.000000	99.997663
490.000000	100.006073
489.000000	99.989256
488.000000	100.015765
487.000000	100.025453
486.000000	100.017629
485.000000	100.000584
484.000000	100.020663
483.000000	100.015987
482.000000	99.979817
481.000000	99.987755
480.000000	100.017625
479.000000	100.002805
478.000000	100.001170
477.000000	99.989351
476.000000	99.983139
475.000000	99.991448
474.000000	99.998359
473.000000	100.012786
472.000000	100.017488
471.000000	100.026662
470.000000	100.028089
469.000000	99.978013
468.000000	100.000471
467.000000	99.998587
466.000000	99.997409
465.000000	99.999764
464.000000	99.997996
463.000000	100.003891
462.000000	100.004482
461.000000	100.024660
460.000000	100.008850
459.000000	100.020534
458.000000	100.006019
457.000000	99.997286
456.000000	100.021953
455.000000	100.007671
454.000000	100.008026
453.000000	100.001298
452.000000	100.006492
451.000000	100.016996
450.000000	100.010033
449.000000	100.006256
448.000000	100.039791
447.000000	99.982649
446.000000	100.006966
445.000000	100.016766
444.000000	100.015581
443.000000	100.014637
442.000000	100.009803
441.000000	100.002009
440.000000	100.008275
439.000000	100.003784
438.000000	100.032880
437.000000	100.021651
436.000000	99.983195
435.000000	100.032445
434.000000	99.992184
433.000000	99.994551
432.000000	99.982345
431.000000	99.993007
430.000000	99.995969
429.000000	99.976517
428.000000	99.985999
427.000000	100.004391
426.000000	99.996082
425.000000	100.016035
424.000000	100.009149
423.000000	100.016756
422.000000	100.013313
421.000000	100.015578
420.000000	99.990842
419.000000	100.002974
418.000000	100.019759
417.000000	100.026789
416.000000	100.022982
415.000000	100.015366
414.000000	100.014418
413.000000	100.003337
412.000000	99.999881
411.000000	99.993440
410.000000	99.993559
409.000000	100.002625
408.000000	99.997255
407.000000	100.004059
406.000000	99.998209
405.000000	99.984950
404.000000	99.980286
403.000000	100.014104
402.000000	99.991511
401.000000	99.982303
400.000000	100.015073
399.000000	99.988872
398.000000	100.001317
397.000000	100.022873
396.000000	99.997605
395.000000	100.019769
394.000000	100.026722
393.000000	100.012225
392.000000	99.993887
391.000000	99.985491
390.000000	99.998681
389.000000	100.017996
388.000000	100.030002
387.000000	100.022444
386.000000	99.991238
385.000000	100.018849
384.000000	100.021494
383.000000	99.987632
382.000000	99.985472
381.000000	99.993275
380.000000	99.990751
379.000000	99.996649
378.000000	100.005596
377.000000	100.034756
376.000000	100.012510
375.000000	100.002625
374.000000	100.061774
373.000000	100.066725
372.000000	100.006819
371.000000	99.981922
370.000000	99.972806
369.000000	99.985493
368.000000	100.010319
367.000000	99.996160
366.000000	99.960871
365.000000	100.007328
364.000000	100.066965
363.000000	100.048827
362.000000	100.023818
361.000000	100.031642
360.000000	100.014684
359.000000	99.979169
358.000000	99.984585
357.000000	100.020000
356.000000	100.006025
355.000000	99.998192
354.000000	99.995058
353.000000	99.993127
352.000000	99.988301
351.000000	99.984438
350.000000	99.981904
349.000000	99.990106
348.000000	100.011588
347.000000	100.059782
346.000000	100.066198
345.000000	100.019924
344.000000	99.992755
343.000000	100.000725
342.000000	99.996376
341.000000	99.977531
340.000000	99.986348
339.000000	100.014621
338.000000	100.004230
337.000000	100.008947
336.000000	100.080063
335.000000	100.065432
334.000000	100.027452
333.000000	100.077067
332.000000	100.019114
331.000000	99.947021
330.000000	100.007382
329.000000	100.011742
328.000000	99.990197
327.000000	100.023004
326.000000	100.035603
325.000000	100.019255
324.000000	100.001211
323.000000	99.996609
322.000000	100.046649
321.000000	99.995274
320.000000	99.960620
319.000000	99.962074
318.000000	99.952491
317.000000	100.004464
316.000000	99.999155
315.000000	99.968256
314.000000	99.991304
313.000000	100.004472
312.000000	100.023822
311.000000	99.951754
310.000000	99.958739
309.000000	100.010049
308.000000	100.033679
307.000000	100.054314
306.000000	100.041478
305.000000	100.025601
304.000000	99.998179
303.000000	100.019075
302.000000	100.031000
301.000000	100.004866
300.000000	99.979675
299.000000	100.003409
298.000000	100.014869
297.000000	99.998170
296.000000	99.975348
295.000000	99.981923
294.000000	99.983742
293.000000	100.005138
292.000000	100.024983
291.000000	100.002696
290.000000	100.000981
289.000000	99.993248
288.000000	99.988696
287.000000	99.983520
286.000000	100.001108
285.000000	100.024523
284.000000	100.006413
283.000000	100.020612
282.000000	100.006174
281.000000	100.032376
280.000000	100.026462
279.000000	99.996906
278.000000	99.999257
277.000000	100.016230
276.000000	100.008057
275.000000	99.994296
274.000000	100.006576
273.000000	99.998635
272.000000	99.994910
271.000000	100.009066
270.000000	100.018511
269.000000	99.992047
268.000000	99.983839
267.000000	100.001865
266.000000	100.017537
265.000000	100.002612
264.000000	99.988059
263.000000	100.002737
262.000000	100.001493
261.000000	100.013437
260.000000	100.019904
259.000000	100.013681
258.000000	100.010943
257.000000	99.999876
256.000000	100.018642
255.000000	100.004598
254.000000	100.000869
253.000000	99.989697
252.000000	100.002854
251.000000	99.984621
250.000000	100.017608
249.000000	99.982774
248.000000	100.022052
247.000000	99.995667
246.000000	100.017202
245.000000	100.005565
244.000000	99.975787
243.000000	100.012591
242.000000	100.006288
241.000000	100.017855
240.000000	100.005164
239.000000	99.991651
238.000000	100.022319
237.000000	99.983348
236.000000	100.015903
235.000000	100.009777
234.000000	100.003908
233.000000	100.013188
232.000000	100.024064
231.000000	100.034823
230.000000	100.006480
229.000000	100.008443
228.000000	100.000368
227.000000	100.008098
226.000000	100.016224
225.000000	99.997415
224.000000	99.994078
223.000000	100.020527
222.000000	100.020578
221.000000	100.034673
220.000000	100.027536
219.000000	100.001249
218.000000	99.996243
217.000000	100.009294
216.000000	100.006297
215.000000	99.982697
214.000000	100.015461
213.000000	100.014624
212.000000	100.025141
211.000000	100.045840
210.000000	100.024670
209.000000	100.017280
208.000000	100.017089
207.000000	100.006758
206.000000	100.006915
205.000000	100.034471
204.000000	100.021066
203.000000	100.004498
202.000000	99.991751
201.000000	100.033867
200.000000	100.033243
199.000000	100.011350
198.000000	100.066515
197.000000	100.027377
196.000000	99.990784
195.000000	100.012052
194.000000	100.014710
193.000000	100.044607
192.000000	100.066160
191.000000	100.020928
190.000000	100.075764
