PE UV       SUBTECH     SPECTRUM    ASCII       PEDS        4.00        
   -1
N2_8bar.Sample.Cycle9.ASC
26/05/13
16:26:18.00
26/05/13
16:26:18.00
Jinky Agarwala

190.000000
1
Lambda 850+
860L2410213
PerkinElmer UV WinLab 7.4.0.367 / 2.02.11 Lambda 800 UV/VIS, May 23 2018 11:23:04

0
0
1
0
0
UV/VIS
1
1
10
RBeamAtt,SBeamAtt,uv/vis detector
0
0
0
0
Fix
 
0
0.2
0
0
0
 
 
 
0
 
0
319.2
0
Front
100
 
S:100 R:100
 
0
0
0
 
0
 
 
 
0
 
 
0
0
0
0
0
 
 
 
 
0
0


0
0

0


#HDR
-1
-1
#GR
nm
%T
1.0
0.0
800.000000
-1.000000
611
8
100.100389
99.940872
#DATA
800.000000	100.005332
799.000000	99.997823
798.000000	100.016117
797.000000	100.058606
796.000000	100.078869
795.000000	100.029638
794.000000	100.018300
793.000000	99.993137
792.000000	99.963709
791.000000	99.966097
790.000000	100.016683
789.000000	100.002945
788.000000	100.006983
787.000000	100.019533
786.000000	99.997926
785.000000	99.992685
784.000000	99.987990
783.000000	99.961344
782.000000	100.037928
781.000000	100.100389
780.000000	100.021539
779.000000	100.009185
778.000000	100.024176
777.000000	99.969806
776.000000	100.068310
775.000000	100.051674
774.000000	100.047863
773.000000	100.075916
772.000000	100.019391
771.000000	100.006027
770.000000	99.986408
769.000000	100.011954
768.000000	100.007020
767.000000	99.991661
766.000000	100.023157
765.000000	99.989793
764.000000	100.024487
763.000000	99.989350
762.000000	99.968585
761.000000	100.030217
760.000000	100.035399
759.000000	100.021771
758.000000	99.993071
757.000000	99.976673
756.000000	100.004842
755.000000	100.014972
754.000000	100.016297
753.000000	100.045165
752.000000	100.022586
751.000000	100.006173
750.000000	99.981484
749.000000	100.039924
748.000000	100.030670
747.000000	100.024385
746.000000	100.036313
745.000000	100.044607
744.000000	100.035569
743.000000	100.044089
742.000000	99.980002
741.000000	99.980661
740.000000	100.005307
739.000000	100.017361
738.000000	100.026333
737.000000	100.015935
736.000000	100.011956
735.000000	99.992914
734.000000	99.988705
733.000000	100.019496
732.000000	100.003546
731.000000	100.012307
730.000000	100.023178
729.000000	100.036504
728.000000	100.015868
727.000000	99.998224
726.000000	100.022204
725.000000	100.025323
724.000000	99.998778
723.000000	99.989780
722.000000	99.983109
721.000000	100.010228
720.000000	99.995441
719.000000	100.015793
718.000000	100.041612
717.000000	99.997329
716.000000	99.992654
715.000000	99.980741
714.000000	100.011916
713.000000	100.035094
712.000000	100.020948
711.000000	99.980497
710.000000	99.985396
709.000000	100.014275
708.000000	100.014947
707.000000	100.017183
706.000000	100.060943
705.000000	100.066321
704.000000	100.040991
703.000000	100.015302
702.000000	100.015080
701.000000	99.991063
700.000000	99.977764
699.000000	99.988822
698.000000	100.023708
697.000000	100.029198
696.000000	100.039387
695.000000	100.028762
694.000000	100.023955
693.000000	100.025975
692.000000	100.007727
691.000000	100.010752
690.000000	100.024641
689.000000	100.021285
688.000000	100.015125
687.000000	99.991148
686.000000	100.006053
685.000000	100.015696
684.000000	100.005943
683.000000	100.000449
682.000000	100.007180
681.000000	99.987434
680.000000	100.004490
679.000000	100.007186
678.000000	100.008647
677.000000	100.002695
676.000000	100.005505
675.000000	100.020112
674.000000	100.031802
673.000000	100.014049
672.000000	100.008994
671.000000	100.031153
670.000000	100.019908
669.000000	100.010236
668.000000	100.011927
667.000000	100.018120
666.000000	100.022175
665.000000	100.017450
664.000000	100.013511
663.000000	99.996284
662.000000	99.999775
661.000000	100.020843
660.000000	100.027044
659.000000	100.022653
658.000000	100.030550
657.000000	100.029315
656.000000	100.009359
655.000000	100.000338
654.000000	100.002030
653.000000	100.008462
652.000000	100.014895
651.000000	100.016365
650.000000	100.017495
649.000000	100.008127
648.000000	100.006999
647.000000	100.023941
646.000000	100.016265
645.000000	100.006551
644.000000	99.993674
643.000000	99.996610
642.000000	99.995028
641.000000	100.004068
640.000000	100.018202
639.000000	100.006784
638.000000	100.008255
637.000000	100.006446
636.000000	100.004072
635.000000	100.016404
634.000000	100.015048
633.000000	100.015617
632.000000	100.022865
631.000000	100.020375
630.000000	100.011547
629.000000	100.030685
628.000000	100.022988
627.000000	100.009741
626.000000	100.003851
625.000000	99.997848
624.000000	100.012689
623.000000	100.007252
622.000000	99.997733
621.000000	99.998753
620.000000	100.013944
619.000000	100.013038
618.000000	99.991724
617.000000	99.989341
616.000000	99.991154
615.000000	99.991040
614.000000	100.011003
613.000000	100.013501
612.000000	100.014526
611.000000	100.032803
610.000000	100.022929
609.000000	100.002384
608.000000	99.990236
607.000000	99.998865
606.000000	100.011698
605.000000	100.006701
604.000000	100.008293
603.000000	100.007158
602.000000	100.023069
601.000000	100.019777
600.000000	100.000000
599.000000	99.993407
598.000000	100.011712
597.000000	100.003184
596.000000	100.019223
595.000000	100.013310
594.000000	100.011492
593.000000	99.986458
592.000000	100.017642
591.000000	100.014572
590.000000	99.997040
589.000000	99.997153
588.000000	99.992141
587.000000	99.997608
586.000000	100.001139
585.000000	100.022111
584.000000	100.019719
583.000000	100.024510
582.000000	100.028052
581.000000	100.008553
580.000000	100.011863
579.000000	100.027839
578.000000	100.015975
577.000000	99.986877
576.000000	100.000342
575.000000	100.007078
574.000000	99.999657
573.000000	100.014161
572.000000	100.001485
571.000000	100.025594
570.000000	100.001143
569.000000	100.015659
568.000000	100.018745
567.000000	100.013033
566.000000	99.997942
565.000000	100.001144
564.000000	100.029056
563.000000	100.012814
562.000000	99.996683
561.000000	100.002859
560.000000	100.006405
559.000000	100.005720
558.000000	100.015103
557.000000	99.999886
556.000000	100.012362
555.000000	100.001030
554.000000	100.009161
553.000000	100.007330
552.000000	100.000344
551.000000	99.994844
550.000000	100.015472
549.000000	99.996447
548.000000	100.015939
547.000000	99.995985
546.000000	99.996559
545.000000	99.996213
544.000000	100.012053
543.000000	100.014122
542.000000	99.998392
541.000000	100.014705
540.000000	99.997357
539.000000	100.020922
538.000000	100.024721
537.000000	99.995745
536.000000	100.017949
535.000000	100.021640
534.000000	99.998043
533.000000	100.014169
532.000000	100.016017
531.000000	100.006455
530.000000	100.000923
529.000000	100.000000
528.000000	100.026902
527.000000	100.029457
526.000000	99.997920
525.000000	100.002544
524.000000	99.997686
523.000000	99.998726
522.000000	100.021550
521.000000	100.001971
520.000000	100.004525
519.000000	100.014632
518.000000	100.004416
517.000000	100.016051
516.000000	100.026425
515.000000	100.020506
514.000000	100.008278
513.000000	100.002217
512.000000	100.012964
511.000000	100.016596
510.000000	100.018712
509.000000	100.023052
508.000000	100.014634
507.000000	100.003865
506.000000	100.012418
505.000000	100.017576
504.000000	100.000469
503.000000	100.009492
502.000000	100.007499
501.000000	100.012185
500.000000	99.999883
499.000000	100.008431
498.000000	100.020841
497.000000	100.002575
496.000000	100.034050
495.000000	100.007602
494.000000	100.013680
493.000000	99.988313
492.000000	99.980488
491.000000	100.027337
490.000000	100.013663
489.000000	100.012612
488.000000	100.038420
487.000000	100.012143
486.000000	100.028603
485.000000	100.013307
484.000000	100.011907
483.000000	99.993348
482.000000	100.000467
481.000000	99.989504
480.000000	100.012373
479.000000	100.010285
478.000000	100.014620
477.000000	99.999766
476.000000	100.007962
475.000000	100.016519
474.000000	100.012660
473.000000	100.006100
472.000000	100.005516
471.000000	100.026427
470.000000	100.025974
469.000000	99.997648
468.000000	100.014942
467.000000	100.011066
466.000000	99.996585
465.000000	100.007188
464.000000	100.017682
463.000000	99.999882
462.000000	100.003303
461.000000	100.008495
460.000000	100.000472
459.000000	99.998584
458.000000	100.009323
457.000000	100.005782
456.000000	100.045322
455.000000	99.993155
454.000000	100.015107
453.000000	100.010504
452.000000	100.027266
451.000000	100.017468
450.000000	100.019830
449.000000	100.023606
448.000000	100.057384
447.000000	100.007436
446.000000	100.023731
445.000000	100.036365
444.000000	100.027622
443.000000	100.004485
442.000000	100.029644
441.000000	100.014888
440.000000	100.028963
439.000000	100.009459
438.000000	100.012419
437.000000	100.009465
436.000000	100.005799
435.000000	100.059325
434.000000	100.031618
433.000000	100.028549
432.000000	99.993009
431.000000	99.980918
430.000000	99.993598
429.000000	100.008777
428.000000	100.021119
427.000000	100.016852
426.000000	100.012109
425.000000	100.039673
424.000000	100.032436
423.000000	100.000238
422.000000	99.994532
421.000000	100.018313
420.000000	100.005233
419.000000	100.005234
418.000000	100.017140
417.000000	100.012621
416.000000	100.001072
415.000000	99.998690
414.000000	100.007626
413.000000	100.031109
412.000000	100.036130
411.000000	99.996899
410.000000	99.999046
409.000000	100.006562
408.000000	100.003103
407.000000	100.007402
406.000000	100.010629
405.000000	100.004419
404.000000	99.988650
403.000000	100.005140
402.000000	99.988881
401.000000	99.987923
400.000000	100.009929
399.000000	100.016752
398.000000	100.038786
397.000000	100.031375
396.000000	100.013654
395.000000	100.023243
394.000000	100.012223
393.000000	100.007191
392.000000	100.012227
391.000000	100.030936
390.000000	100.033947
389.000000	100.005759
388.000000	100.019201
387.000000	100.031085
386.000000	100.010442
385.000000	100.017888
384.000000	100.019333
383.000000	99.997599
382.000000	99.989194
381.000000	99.976943
380.000000	99.992553
379.000000	100.026929
378.000000	100.051673
377.000000	100.059037
376.000000	100.021088
375.000000	100.011692
374.000000	100.038833
373.000000	100.029297
372.000000	100.005264
371.000000	100.012691
370.000000	100.033064
369.000000	100.047356
368.000000	100.044994
367.000000	100.015362
366.000000	99.969513
365.000000	99.990871
364.000000	100.022121
363.000000	100.030427
362.000000	100.045110
361.000000	100.029476
360.000000	100.011796
359.000000	100.008910
358.000000	100.015536
357.000000	100.015301
356.000000	100.003977
355.000000	100.033869
354.000000	100.027967
353.000000	100.009887
352.000000	100.005427
351.000000	100.011340
350.000000	99.993727
349.000000	99.993484
348.000000	100.006036
347.000000	100.024034
346.000000	100.024764
345.000000	99.976816
344.000000	99.996015
343.000000	100.035266
342.000000	100.049647
341.000000	100.018845
340.000000	99.986107
339.000000	99.999637
338.000000	100.016317
337.000000	100.048119
336.000000	100.055512
335.000000	100.008466
334.000000	100.015238
333.000000	100.063879
332.000000	100.034841
331.000000	99.997218
330.000000	100.026988
329.000000	100.048904
328.000000	99.980031
327.000000	100.028453
326.000000	100.055948
325.000000	100.009446
324.000000	99.963073
323.000000	100.010899
322.000000	100.033442
321.000000	100.027142
320.000000	100.045317
319.000000	100.015460
318.000000	99.982998
317.000000	100.001327
316.000000	99.962950
315.000000	99.964756
314.000000	99.975965
313.000000	100.005559
312.000000	99.996130
311.000000	99.940872
310.000000	99.976284
309.000000	99.998184
308.000000	100.014296
307.000000	100.046312
306.000000	100.020011
305.000000	100.026693
304.000000	100.009104
303.000000	100.013729
302.000000	100.026867
301.000000	100.026396
300.000000	100.017404
299.000000	99.983441
298.000000	100.019500
297.000000	100.033545
296.000000	100.015011
295.000000	99.993526
294.000000	99.989365
293.000000	99.980548
292.000000	100.023514
291.000000	100.036399
290.000000	100.024903
289.000000	100.012400
288.000000	100.004300
287.000000	100.032961
286.000000	100.031147
285.000000	100.020457
284.000000	100.011963
283.000000	100.007406
282.000000	99.996419
281.000000	100.013964
280.000000	100.001731
279.000000	99.980696
278.000000	100.005571
277.000000	100.013009
276.000000	99.991943
275.000000	99.991197
274.000000	100.020845
273.000000	100.005958
272.000000	100.005587
271.000000	100.016020
270.000000	99.995031
269.000000	99.986828
268.000000	100.003729
267.000000	99.997389
266.000000	100.020273
265.000000	100.012314
264.000000	99.976367
263.000000	100.025378
262.000000	100.017046
261.000000	99.997387
260.000000	99.992287
259.000000	100.008582
258.000000	99.994404
257.000000	99.984338
256.000000	100.007333
255.000000	100.025721
254.000000	100.010184
253.000000	100.003476
252.000000	100.007198
251.000000	99.995659
250.000000	100.003844
249.000000	99.987236
248.000000	100.020689
247.000000	100.014608
246.000000	100.024627
245.000000	100.021764
244.000000	100.008647
243.000000	100.020121
242.000000	100.002466
241.000000	100.011944
240.000000	99.985000
239.000000	100.000614
238.000000	100.010914
237.000000	99.978818
236.000000	99.999021
235.000000	100.000367
234.000000	99.993649
233.000000	99.993406
232.000000	100.023697
231.000000	100.017839
230.000000	100.015649
229.000000	99.997675
228.000000	99.983952
227.000000	100.017669
226.000000	99.997296
225.000000	100.019083
224.000000	100.002344
223.000000	100.016075
222.000000	100.003347
221.000000	100.015286
220.000000	100.032893
219.000000	100.005497
218.000000	99.987977
217.000000	100.007787
216.000000	100.016625
215.000000	99.982445
214.000000	100.012673
213.000000	100.024035
212.000000	100.037009
211.000000	100.041743
210.000000	100.008609
209.000000	99.995873
208.000000	100.026152
207.000000	100.011957
206.000000	100.010830
205.000000	100.031588
204.000000	100.034233
203.000000	99.998412
202.000000	99.990421
201.000000	100.009103
200.000000	100.025168
199.000000	100.004459
198.000000	100.032377
197.000000	100.051636
196.000000	100.011655
195.000000	99.969802
194.000000	100.015790
193.000000	100.015633
192.000000	100.000667
191.000000	100.061051
190.000000	100.044218
