PE UV       SUBTECH     SPECTRUM    ASCII       PEDS        4.00        
   -1
N2_8bar.Sample.Cycle1.ASC
26/05/13
16:26:18.00
26/05/13
16:26:18.00
Jinky Agarwala

190.000000
1
Lambda 850+
860L2410213
PerkinElmer UV WinLab 7.4.0.367 / 2.02.11 Lambda 800 UV/VIS, May 23 2018 11:23:04

0
0
1
0
0
UV/VIS
1
1
10
RBeamAtt,SBeamAtt,uv/vis detector
0
0
0
0
Fix
 
0
0.2
0
0
0
 
 
 
0
 
0
319.2
0
Front
100
 
S:100 R:100
 
0
0
0
 
0
 
 
 
0
 
 
0
0
0
0
0
 
 
 
 
0
0


0
0

0


#HDR
-1
-1
#GR
nm
%T
1.0
0.0
800.000000
-1.000000
611
8
100.081884
99.922981
#DATA
800.000000	99.969096
799.000000	99.997061
798.000000	100.041816
797.000000	100.035948
796.000000	100.024946
795.000000	99.988559
794.000000	99.981700
793.000000	99.922981
792.000000	99.963164
791.000000	99.969586
790.000000	99.989423
789.000000	100.013525
788.000000	99.962141
787.000000	99.993562
786.000000	100.032524
785.000000	100.015613
784.000000	99.965499
783.000000	99.984166
782.000000	100.023718
781.000000	100.074800
780.000000	100.016072
779.000000	99.998141
778.000000	100.037413
777.000000	100.014003
776.000000	100.003503
775.000000	100.013794
774.000000	99.982804
773.000000	99.991455
772.000000	99.985758
771.000000	100.017533
770.000000	99.978077
769.000000	100.026541
768.000000	100.009652
767.000000	100.029297
766.000000	100.013609
765.000000	99.963013
764.000000	99.973647
763.000000	99.969038
762.000000	100.007140
761.000000	100.026591
760.000000	100.049471
759.000000	99.994942
758.000000	100.011548
757.000000	100.012434
756.000000	99.972157
755.000000	100.019265
754.000000	100.004735
753.000000	99.998678
752.000000	99.990525
751.000000	100.015762
750.000000	99.970793
749.000000	100.000000
748.000000	100.035414
747.000000	99.991614
746.000000	100.028035
745.000000	100.030695
744.000000	100.036011
743.000000	100.005967
742.000000	99.952932
741.000000	99.972926
740.000000	99.979212
739.000000	99.967931
738.000000	99.979531
737.000000	99.973773
736.000000	99.989705
735.000000	99.983725
734.000000	99.991031
733.000000	99.978178
732.000000	99.971408
731.000000	99.989024
730.000000	100.010868
729.000000	100.028405
728.000000	100.011984
727.000000	99.990900
726.000000	100.005995
725.000000	99.989005
724.000000	99.965235
723.000000	99.998111
722.000000	99.987999
721.000000	100.003113
720.000000	100.005338
719.000000	100.009120
718.000000	100.007677
717.000000	100.009905
716.000000	100.013579
715.000000	99.999889
714.000000	100.004677
713.000000	100.016600
712.000000	100.007911
711.000000	99.987629
710.000000	99.992085
709.000000	100.026096
708.000000	100.004685
707.000000	99.995314
706.000000	100.026677
705.000000	100.041758
704.000000	100.045459
703.000000	100.019547
702.000000	99.980675
701.000000	99.959225
700.000000	99.959662
699.000000	99.984127
698.000000	100.004809
697.000000	100.020808
696.000000	100.035135
695.000000	100.012199
694.000000	99.994291
693.000000	100.013435
692.000000	100.022956
691.000000	100.023520
690.000000	100.007504
689.000000	100.017813
688.000000	99.999440
687.000000	99.976695
686.000000	99.988118
685.000000	99.989349
684.000000	99.990468
683.000000	100.000673
682.000000	100.011779
681.000000	99.985415
680.000000	100.011336
679.000000	100.025264
678.000000	100.017070
677.000000	100.006514
676.000000	100.010897
675.000000	100.019888
674.000000	100.007080
673.000000	100.004383
672.000000	100.017539
671.000000	100.025080
670.000000	100.018221
669.000000	100.002137
668.000000	100.000675
667.000000	100.007203
666.000000	100.001576
665.000000	100.002139
664.000000	99.984238
663.000000	99.992681
662.000000	100.018022
661.000000	100.022984
660.000000	100.009465
659.000000	100.000789
658.000000	100.017473
657.000000	100.016574
656.000000	100.006314
655.000000	99.997181
654.000000	100.008459
653.000000	100.028544
652.000000	100.023020
651.000000	100.023588
650.000000	100.009594
649.000000	99.985665
648.000000	99.992549
647.000000	100.015020
646.000000	100.019202
645.000000	99.997176
644.000000	99.997289
643.000000	100.025537
642.000000	99.998757
641.000000	99.994462
640.000000	100.024081
639.000000	100.018431
638.000000	100.012552
637.000000	100.006560
636.000000	100.020360
635.000000	100.026473
634.000000	100.004299
633.000000	100.016070
632.000000	100.027733
631.000000	100.013357
630.000000	100.011773
629.000000	100.017211
628.000000	100.004869
627.000000	100.021067
626.000000	100.017896
625.000000	99.993544
624.000000	100.001813
623.000000	99.998980
622.000000	100.007933
621.000000	99.986626
620.000000	99.998186
619.000000	100.019047
618.000000	99.997052
617.000000	99.992516
616.000000	99.996144
615.000000	99.994102
614.000000	99.982191
613.000000	99.995916
612.000000	100.021108
611.000000	100.015891
610.000000	100.003292
609.000000	100.010559
608.000000	100.000568
607.000000	100.006358
606.000000	100.004770
605.000000	99.995684
604.000000	99.996592
603.000000	99.995455
602.000000	100.019773
601.000000	100.013753
600.000000	100.005683
599.000000	100.001478
598.000000	100.010120
597.000000	100.007619
596.000000	100.022863
595.000000	100.011262
594.000000	100.010696
593.000000	100.014794
592.000000	100.010357
591.000000	100.003301
590.000000	99.998406
589.000000	100.004099
588.000000	99.998292
587.000000	99.993849
586.000000	99.995898
585.000000	100.008206
584.000000	99.997378
583.000000	100.002964
582.000000	100.008895
581.000000	99.983806
580.000000	99.989506
579.000000	100.004792
578.000000	100.010042
577.000000	99.989730
576.000000	100.001027
575.000000	100.008219
574.000000	100.005023
573.000000	99.992920
572.000000	99.988236
571.000000	100.022052
570.000000	100.029710
569.000000	100.037033
568.000000	100.006172
567.000000	100.009832
566.000000	100.010176
565.000000	100.003316
564.000000	100.011554
563.000000	100.022081
562.000000	99.989364
561.000000	100.002630
560.000000	100.002402
559.000000	100.002974
558.000000	100.006064
557.000000	100.011787
556.000000	99.995193
555.000000	100.011563
554.000000	100.004810
553.000000	100.007903
552.000000	99.995074
551.000000	99.990833
550.000000	99.990373
549.000000	99.991403
548.000000	100.009632
547.000000	100.010782
546.000000	99.989446
545.000000	100.007803
544.000000	99.990702
543.000000	99.993456
542.000000	100.004134
541.000000	99.999311
540.000000	99.999885
539.000000	100.023106
538.000000	100.003794
537.000000	99.990685
536.000000	100.018179
535.000000	100.018187
534.000000	100.015889
533.000000	100.027532
532.000000	100.004840
531.000000	100.004381
530.000000	100.010494
529.000000	99.989617
528.000000	100.008197
527.000000	100.029804
526.000000	100.007627
525.000000	100.023358
524.000000	100.000926
523.000000	100.008452
522.000000	100.012976
521.000000	99.999884
520.000000	100.006613
519.000000	100.005806
518.000000	100.005578
517.000000	100.002326
516.000000	100.020837
515.000000	100.021438
514.000000	100.007462
513.000000	99.993699
512.000000	99.997080
511.000000	100.023492
510.000000	100.017776
509.000000	100.022467
508.000000	100.007493
507.000000	100.010189
506.000000	100.002109
505.000000	100.005273
504.000000	100.000703
503.000000	100.001992
502.000000	99.996368
501.000000	100.001757
500.000000	100.002928
499.000000	100.011007
498.000000	100.022363
497.000000	99.997894
496.000000	100.011584
495.000000	100.025028
494.000000	100.035780
493.000000	99.992637
492.000000	99.979554
491.000000	100.001285
490.000000	99.970804
489.000000	99.995095
488.000000	100.018801
487.000000	100.028256
486.000000	100.015994
485.000000	99.981440
484.000000	100.037356
483.000000	99.980512
482.000000	99.987984
481.000000	100.001050
480.000000	99.999767
479.000000	100.001519
478.000000	100.012866
477.000000	100.014394
476.000000	100.003630
475.000000	99.977506
474.000000	99.978314
473.000000	100.009971
472.000000	99.997418
471.000000	100.010101
470.000000	100.018922
469.000000	100.001881
468.000000	99.995882
467.000000	100.011301
466.000000	99.983158
465.000000	100.016144
464.000000	100.012260
463.000000	100.005778
462.000000	99.995518
461.000000	100.000354
460.000000	100.002242
459.000000	100.015342
458.000000	99.995280
457.000000	99.983363
456.000000	100.022897
455.000000	99.982417
454.000000	99.993272
453.000000	99.989142
452.000000	99.999764
451.000000	99.993390
450.000000	100.015227
449.000000	99.999174
448.000000	100.031644
447.000000	99.980879
446.000000	99.999292
445.000000	100.029045
444.000000	100.022546
443.000000	99.991029
442.000000	100.001535
441.000000	100.000118
440.000000	100.012176
439.000000	100.002247
438.000000	99.992194
437.000000	99.976338
436.000000	99.999527
435.000000	100.016696
434.000000	99.993487
433.000000	99.979032
432.000000	99.962676
431.000000	99.981155
430.000000	99.996917
429.000000	99.987428
428.000000	100.002610
427.000000	99.992167
426.000000	99.988366
425.000000	100.023400
424.000000	100.005347
423.000000	99.995603
422.000000	99.997979
421.000000	100.009157
420.000000	99.974548
419.000000	99.982631
418.000000	100.013688
417.000000	100.010716
416.000000	100.005001
415.000000	100.005956
414.000000	100.011439
413.000000	100.008463
412.000000	100.024921
411.000000	100.019560
410.000000	100.010855
409.000000	100.004057
408.000000	99.996897
407.000000	99.990210
406.000000	99.996298
405.000000	99.992236
404.000000	99.997371
403.000000	100.020559
402.000000	99.988522
401.000000	99.983379
400.000000	100.008374
399.000000	99.994376
398.000000	100.019872
397.000000	100.042392
396.000000	100.026350
395.000000	100.018331
394.000000	99.979509
393.000000	99.968598
392.000000	99.983578
391.000000	99.999281
390.000000	100.013915
389.000000	100.023155
388.000000	100.049804
387.000000	100.042847
386.000000	100.013083
385.000000	99.999400
384.000000	99.994236
383.000000	99.986191
382.000000	99.975627
381.000000	99.993635
380.000000	99.986066
379.000000	99.973669
378.000000	100.016312
377.000000	100.016664
376.000000	99.989634
375.000000	100.037223
374.000000	100.073006
373.000000	100.068997
372.000000	100.049411
371.000000	100.029812
370.000000	99.993052
369.000000	99.996283
368.000000	100.006239
367.000000	99.985118
366.000000	99.975514
365.000000	100.015736
364.000000	100.049532
363.000000	100.015875
362.000000	99.987850
361.000000	99.981953
360.000000	99.990251
359.000000	99.995063
358.000000	100.020714
357.000000	100.041325
356.000000	100.012894
355.000000	100.016151
354.000000	100.024109
353.000000	99.983602
352.000000	99.964179
351.000000	99.996863
350.000000	99.986247
349.000000	99.961148
348.000000	100.016779
347.000000	100.081884
346.000000	100.063419
345.000000	100.032723
344.000000	100.018233
343.000000	100.023551
342.000000	100.026454
341.000000	99.993839
340.000000	99.974267
339.000000	99.982841
338.000000	100.006164
337.000000	100.035787
336.000000	100.073895
335.000000	100.044992
334.000000	100.043899
333.000000	100.061944
332.000000	100.034236
331.000000	99.976414
330.000000	100.020453
329.000000	100.012105
328.000000	99.978579
327.000000	100.035475
326.000000	100.035361
325.000000	100.048925
324.000000	100.002421
323.000000	100.004602
322.000000	100.044589
321.000000	99.988974
320.000000	100.014177
319.000000	100.007368
318.000000	99.968649
317.000000	100.025218
316.000000	99.999879
315.000000	99.956427
314.000000	99.987077
313.000000	100.009668
312.000000	100.025152
311.000000	99.937123
310.000000	99.981245
309.000000	100.012713
308.000000	100.041554
307.000000	100.058072
306.000000	100.012856
305.000000	99.981072
304.000000	100.000000
303.000000	100.032318
302.000000	100.012522
301.000000	100.043182
300.000000	100.020446
299.000000	99.967368
298.000000	99.988422
297.000000	100.028177
296.000000	100.010618
295.000000	100.019177
294.000000	100.015647
293.000000	100.004649
292.000000	100.019105
291.000000	99.999877
290.000000	100.009078
289.000000	99.987109
288.000000	99.980095
287.000000	100.002337
286.000000	100.011203
285.000000	100.024770
284.000000	100.019363
283.000000	100.034806
282.000000	99.995308
281.000000	99.981217
280.000000	99.989242
279.000000	99.996288
278.000000	99.989724
277.000000	99.998389
276.000000	100.009296
275.000000	99.991073
274.000000	100.024816
273.000000	99.988581
272.000000	100.022471
271.000000	99.983111
270.000000	100.004348
269.000000	99.981361
268.000000	99.995028
267.000000	99.981350
266.000000	99.988931
265.000000	99.975869
264.000000	99.986318
263.000000	99.979225
262.000000	99.994774
261.000000	100.010824
260.000000	99.987311
259.000000	99.997388
258.000000	100.006466
257.000000	99.993039
256.000000	100.004101
255.000000	100.016775
254.000000	99.989319
253.000000	99.985724
252.000000	99.995036
251.000000	99.973954
250.000000	99.992560
249.000000	100.008675
248.000000	100.006566
247.000000	99.989601
246.000000	100.014356
245.000000	99.999382
244.000000	99.989500
243.000000	100.008024
242.000000	100.016891
241.000000	100.019086
240.000000	99.989918
239.000000	100.005648
238.000000	100.013122
237.000000	99.971105
236.000000	100.018717
235.000000	99.997678
234.000000	100.018930
233.000000	100.007082
232.000000	100.036157
231.000000	100.019550
230.000000	100.007825
229.000000	100.005262
228.000000	100.003063
227.000000	100.010061
226.000000	100.025933
225.000000	100.002709
224.000000	99.999260
223.000000	99.984048
222.000000	100.017355
221.000000	100.021872
220.000000	100.033018
219.000000	100.002998
218.000000	99.996243
217.000000	100.017834
216.000000	99.998489
215.000000	99.974235
214.000000	100.008745
213.000000	100.019711
212.000000	100.038923
211.000000	100.009987
210.000000	100.009380
209.000000	100.005674
208.000000	100.025116
207.000000	100.013517
206.000000	99.987604
205.000000	100.001311
204.000000	100.016721
203.000000	100.007276
202.000000	100.004923
201.000000	100.033466
200.000000	100.041049
199.000000	99.993244
198.000000	100.045653
197.000000	100.032798
196.000000	99.979942
195.000000	99.995396
194.000000	99.994467
193.000000	100.029513
192.000000	100.024277
191.000000	100.018795
190.000000	100.073916
