PE UV       SUBTECH     SPECTRUM    ASCII       PEDS        4.00        
   -1
N2_8bar.Sample.Cycle4.ASC
26/05/13
16:26:18.00
26/05/13
16:26:18.00
Jinky Agarwala

190.000000
1
Lambda 850+
860L2410213
PerkinElmer UV WinLab 7.4.0.367 / 2.02.11 Lambda 800 UV/VIS, May 23 2018 11:23:04

0
0
1
0
0
UV/VIS
1
1
10
RBeamAtt,SBeamAtt,uv/vis detector
0
0
0
0
Fix
 
0
0.2
0
0
0
 
 
 
0
 
0
319.2
0
Front
100
 
S:100 R:100
 
0
0
0
 
0
 
 
 
0
 
 
0
0
0
0
0
 
 
 
 
0
0


0
0

0


#HDR
-1
-1
#GR
nm
%T
1.0
0.0
800.000000
-1.000000
611
8
100.122589
99.932922
#DATA
800.000000	100.005767
799.000000	100.030915
798.000000	100.063704
797.000000	100.067757
796.000000	100.010349
795.000000	100.007301
794.000000	99.993464
793.000000	99.938668
792.000000	99.996077
791.000000	99.980705
790.000000	100.008178
789.000000	100.049956
788.000000	100.026294
787.000000	99.969882
786.000000	99.967367
785.000000	100.020418
784.000000	99.982640
783.000000	99.958395
782.000000	100.026670
781.000000	100.122589
780.000000	100.042750
779.000000	100.023619
778.000000	100.051088
777.000000	99.997921
776.000000	100.054845
775.000000	99.999124
774.000000	100.033405
773.000000	100.046776
772.000000	99.991126
771.000000	99.973263
770.000000	99.990354
769.000000	100.047818
768.000000	99.994516
767.000000	100.021177
766.000000	100.021511
765.000000	100.051584
764.000000	100.022620
763.000000	99.970355
762.000000	99.976494
761.000000	99.998901
760.000000	100.022976
759.000000	100.007587
758.000000	100.021887
757.000000	100.039832
756.000000	100.037528
755.000000	100.042054
754.000000	100.045258
753.000000	100.023023
752.000000	100.013662
751.000000	100.028217
750.000000	99.972446
749.000000	100.002757
748.000000	100.009929
747.000000	100.024165
746.000000	100.020419
745.000000	99.997902
744.000000	100.050039
743.000000	100.029393
742.000000	99.999116
741.000000	99.982650
740.000000	100.019792
739.000000	100.001216
738.000000	100.039720
737.000000	100.008964
736.000000	100.026679
735.000000	100.001439
734.000000	99.980621
733.000000	99.980504
732.000000	99.977393
731.000000	100.020511
730.000000	100.005323
729.000000	100.027739
728.000000	100.012761
727.000000	100.019311
726.000000	100.019872
725.000000	100.029210
724.000000	100.023991
723.000000	99.998223
722.000000	99.981665
721.000000	100.006115
720.000000	100.013455
719.000000	100.021466
718.000000	100.028928
717.000000	100.009571
716.000000	100.009238
715.000000	99.996549
714.000000	99.990646
713.000000	100.027852
712.000000	100.011477
711.000000	99.994428
710.000000	99.985731
709.000000	100.011710
708.000000	100.012270
707.000000	100.015844
706.000000	100.028909
705.000000	100.013287
704.000000	100.035071
703.000000	100.015191
702.000000	100.005250
701.000000	99.977099
700.000000	99.971283
699.000000	99.997317
698.000000	100.007269
697.000000	100.026177
696.000000	100.030883
695.000000	100.020592
694.000000	100.021604
693.000000	100.037283
692.000000	100.024636
691.000000	100.021616
690.000000	100.015009
689.000000	100.020165
688.000000	100.005602
687.000000	99.995294
686.000000	99.994283
685.000000	100.001233
684.000000	100.020857
683.000000	99.997084
682.000000	100.005834
681.000000	99.994839
680.000000	100.017060
679.000000	100.042106
678.000000	100.038520
677.000000	100.003594
676.000000	100.012582
675.000000	100.021798
674.000000	100.004607
673.000000	100.006856
672.000000	100.012142
671.000000	100.022380
670.000000	100.023957
669.000000	100.012261
668.000000	100.015527
667.000000	100.029262
666.000000	100.047164
665.000000	100.042330
664.000000	100.019027
663.000000	100.010022
662.000000	100.013854
661.000000	100.018590
660.000000	100.017015
659.000000	100.031669
658.000000	100.019953
657.000000	100.014432
656.000000	100.005187
655.000000	99.996730
654.000000	100.007219
653.000000	100.016923
652.000000	100.017603
651.000000	100.006320
650.000000	100.001354
649.000000	99.995937
648.000000	100.006661
647.000000	100.013890
646.000000	100.007455
645.000000	100.004857
644.000000	100.001582
643.000000	100.008588
642.000000	99.996497
641.000000	100.003955
640.000000	100.025099
639.000000	100.014247
638.000000	100.012891
637.000000	100.007012
636.000000	99.992082
635.000000	99.996719
634.000000	100.000792
633.000000	100.020144
632.000000	100.032487
631.000000	100.013017
630.000000	99.990717
629.000000	99.993546
628.000000	99.997622
627.000000	100.017443
626.000000	100.012573
625.000000	99.998641
624.000000	100.011443
623.000000	100.024929
622.000000	100.023232
621.000000	100.000793
620.000000	100.009523
619.000000	100.018707
618.000000	99.986282
617.000000	99.987073
616.000000	100.003856
615.000000	99.995577
614.000000	100.004651
613.000000	100.005786
612.000000	100.012370
611.000000	100.022133
610.000000	100.010216
609.000000	100.018279
608.000000	100.003974
607.000000	100.002611
606.000000	100.016013
605.000000	99.997842
604.000000	100.009770
603.000000	100.004885
602.000000	100.018182
601.000000	100.013071
600.000000	100.011708
599.000000	100.014096
598.000000	100.014213
597.000000	100.004776
596.000000	100.007507
595.000000	99.993061
594.000000	100.009103
593.000000	100.012518
592.000000	99.999317
591.000000	100.013206
590.000000	100.012296
589.000000	100.009679
588.000000	100.024488
587.000000	100.004556
586.000000	99.997152
585.000000	100.022111
584.000000	100.025076
583.000000	99.998290
582.000000	100.018474
581.000000	100.000684
580.000000	100.009011
579.000000	100.023275
578.000000	100.019969
577.000000	100.007988
576.000000	100.011299
575.000000	100.027170
574.000000	100.000000
573.000000	100.003997
572.000000	99.999201
571.000000	100.038049
570.000000	100.019768
569.000000	100.038748
568.000000	100.022289
567.000000	100.011775
566.000000	99.994283
565.000000	100.002516
564.000000	100.012126
563.000000	100.008009
562.000000	100.000229
561.000000	99.992796
560.000000	100.009264
559.000000	100.016358
558.000000	100.018764
557.000000	100.020255
556.000000	100.002060
555.000000	100.000114
554.000000	99.996908
553.000000	100.006185
552.000000	99.992897
551.000000	100.010771
550.000000	100.008939
549.000000	100.006648
548.000000	100.019494
547.000000	100.011929
546.000000	100.006080
545.000000	100.006196
544.000000	100.020203
543.000000	100.007348
542.000000	100.010910
541.000000	100.019759
540.000000	99.997013
539.000000	100.011151
538.000000	100.012763
537.000000	99.988385
536.000000	99.999080
535.000000	100.033151
534.000000	100.014392
533.000000	100.035250
532.000000	100.013828
531.000000	100.005764
530.000000	100.010148
529.000000	99.989155
528.000000	100.018358
527.000000	100.039277
526.000000	100.012134
525.000000	100.005897
524.000000	99.999537
523.000000	100.001968
522.000000	100.007994
521.000000	99.996870
520.000000	100.014967
519.000000	100.026012
518.000000	100.010226
517.000000	100.008840
516.000000	100.014435
515.000000	100.024933
514.000000	100.005713
513.000000	100.001400
512.000000	100.015767
511.000000	100.008649
510.000000	100.015788
509.000000	100.012520
508.000000	99.998127
507.000000	100.010541
506.000000	100.014292
505.000000	100.003984
504.000000	100.001758
503.000000	100.008789
502.000000	100.002929
501.000000	100.007967
500.000000	99.996252
499.000000	99.998712
498.000000	100.046014
497.000000	100.007256
496.000000	100.029603
495.000000	99.993334
494.000000	100.003040
493.000000	100.006311
492.000000	99.981306
491.000000	99.991355
490.000000	100.002920
489.000000	99.998248
488.000000	100.015999
487.000000	100.009924
486.000000	100.029654
485.000000	100.014241
484.000000	100.034088
483.000000	99.990081
482.000000	99.997083
481.000000	100.001516
480.000000	100.022761
479.000000	100.016246
478.000000	100.018714
477.000000	100.004447
476.000000	100.014870
475.000000	100.016519
474.000000	100.022975
473.000000	100.009267
472.000000	100.001643
471.000000	100.002936
470.000000	100.030087
469.000000	100.002116
468.000000	100.000353
467.000000	100.001177
466.000000	100.007773
465.000000	100.019326
464.000000	100.007898
463.000000	100.004009
462.000000	100.007667
461.000000	100.031504
460.000000	100.020059
459.000000	100.038118
458.000000	100.022068
457.000000	99.979941
456.000000	100.017468
455.000000	100.012037
454.000000	100.024668
453.000000	100.024667
452.000000	100.024433
451.000000	100.017586
450.000000	100.031752
449.000000	100.012747
448.000000	100.051480
447.000000	99.996223
446.000000	100.018772
445.000000	100.030344
444.000000	100.018060
443.000000	99.976039
442.000000	99.991024
441.000000	100.003899
440.000000	100.011822
439.000000	100.008631
438.000000	100.005559
437.000000	100.008282
436.000000	100.008048
435.000000	100.012078
434.000000	99.995026
433.000000	100.017888
432.000000	99.998341
431.000000	99.985422
430.000000	100.000474
429.000000	100.007591
428.000000	100.036900
427.000000	100.018988
426.000000	100.005580
425.000000	100.021143
424.000000	100.009743
423.000000	100.001664
422.000000	99.991323
421.000000	100.021643
420.000000	99.992388
419.000000	100.005591
418.000000	100.022853
417.000000	100.010239
416.000000	99.987258
415.000000	100.008815
414.000000	100.022520
413.000000	100.019190
412.000000	100.026233
411.000000	100.024807
410.000000	100.003101
409.000000	99.983773
408.000000	99.991884
407.000000	99.990210
406.000000	99.988297
405.000000	99.984711
404.000000	100.013740
403.000000	100.030599
402.000000	100.015303
401.000000	99.998206
400.000000	100.010766
399.000000	100.000479
398.000000	100.017478
397.000000	100.020358
396.000000	100.027189
395.000000	100.042773
394.000000	100.024805
393.000000	100.006951
392.000000	99.985376
391.000000	99.987170
390.000000	100.034787
389.000000	100.031314
388.000000	100.038043
387.000000	100.032285
386.000000	100.001800
385.000000	100.005042
384.000000	99.997598
383.000000	99.981629
382.000000	99.974666
381.000000	99.994956
380.000000	99.997478
379.000000	99.971994
378.000000	99.979759
377.000000	99.979170
376.000000	99.932922
375.000000	100.008709
374.000000	100.077427
373.000000	100.074139
372.000000	100.015912
371.000000	99.996049
370.000000	100.006469
369.000000	100.013907
368.000000	100.022917
367.000000	99.984278
366.000000	99.960871
365.000000	99.996036
364.000000	100.043521
363.000000	100.047505
362.000000	100.031156
361.000000	99.996150
360.000000	99.981945
359.000000	99.997351
358.000000	100.022160
357.000000	100.038072
356.000000	100.015906
355.000000	100.018200
354.000000	100.015551
353.000000	100.020015
352.000000	100.003739
351.000000	100.000241
350.000000	99.996622
349.000000	99.992640
348.000000	99.999276
347.000000	100.022947
346.000000	100.057742
345.000000	100.034655
344.000000	100.029703
343.000000	99.995652
342.000000	99.974150
341.000000	99.979343
340.000000	99.986832
339.000000	100.000604
338.000000	100.011241
337.000000	100.030588
336.000000	100.067485
335.000000	100.047653
334.000000	99.987665
333.000000	100.037505
332.000000	100.049842
331.000000	99.999274
330.000000	100.021421
329.000000	100.030626
328.000000	100.026868
327.000000	100.008233
326.000000	100.030033
325.000000	100.034029
324.000000	100.001211
323.000000	99.993945
322.000000	100.047860
321.000000	100.034533
320.000000	100.018418
319.000000	100.016547
318.000000	100.012541
317.000000	100.051401
316.000000	99.986001
315.000000	99.951358
314.000000	99.990096
313.000000	100.028884
312.000000	100.027571
311.000000	99.961911
310.000000	99.992377
309.000000	99.994552
308.000000	100.008602
307.000000	100.022186
306.000000	100.020618
305.000000	99.989323
304.000000	99.972930
303.000000	100.061235
302.000000	100.023585
301.000000	99.990512
300.000000	100.010223
299.000000	99.985389
298.000000	100.026325
297.000000	100.034764
296.000000	100.001953
295.000000	100.022963
294.000000	99.997922
293.000000	99.992782
292.000000	99.998163
291.000000	99.997794
290.000000	99.995829
289.000000	99.995212
288.000000	100.003440
287.000000	100.007010
286.000000	100.026961
285.000000	100.037709
284.000000	100.019239
283.000000	100.036534
282.000000	100.024079
281.000000	100.011616
280.000000	100.022876
279.000000	99.994679
278.000000	99.984896
277.000000	100.007310
276.000000	100.008057
275.000000	99.971606
274.000000	100.013028
273.000000	100.010177
272.000000	99.986219
271.000000	99.989941
270.000000	99.966705
269.000000	99.991675
268.000000	100.007583
267.000000	100.004725
266.000000	100.029353
265.000000	99.982462
264.000000	99.978482
263.000000	99.990670
262.000000	99.995894
261.000000	100.010451
260.000000	100.015923
259.000000	99.981593
258.000000	100.021886
257.000000	100.010939
256.000000	100.011185
255.000000	100.014787
254.000000	100.014159
253.000000	100.012538
252.000000	99.996277
251.000000	100.013271
250.000000	100.011160
249.000000	100.017969
248.000000	100.002602
247.000000	100.003590
246.000000	100.023266
245.000000	100.018178
244.000000	100.000371
243.000000	100.023330
242.000000	100.003945
241.000000	100.020687
240.000000	99.979713
239.000000	99.999754
238.000000	100.013612
237.000000	99.983593
236.000000	100.018595
235.000000	100.016988
234.000000	100.016732
233.000000	100.005495
232.000000	99.994992
231.000000	100.019061
230.000000	100.002567
229.000000	100.016030
228.000000	100.026093
227.000000	100.027485
226.000000	100.010816
225.000000	99.993352
224.000000	99.987910
223.000000	100.010140
222.000000	100.009297
221.000000	100.000870
220.000000	100.031897
219.000000	100.020113
218.000000	99.997746
217.000000	100.007912
216.000000	100.004030
215.000000	99.983202
214.000000	100.016855
213.000000	100.032682
212.000000	100.043645
211.000000	100.044560
210.000000	100.023256
209.000000	99.998066
208.000000	100.035344
207.000000	100.043670
206.000000	99.998695
205.000000	100.017563
204.000000	100.000000
203.000000	99.993915
202.000000	100.011575
201.000000	100.038552
200.000000	100.054777
199.000000	100.029186
198.000000	100.056897
197.000000	100.065595
196.000000	99.986312
195.000000	100.023156
194.000000	99.997706
193.000000	100.003234
192.000000	100.011605
191.000000	100.021328
190.000000	100.088568
