PE UV       SUBTECH     SPECTRUM    ASCII       PEDS        4.00        
   -1
N2_8bar.Sample.Cycle3.ASC
26/05/13
16:26:18.00
26/05/13
16:26:18.00
Jinky Agarwala

190.000000
1
Lambda 850+
860L2410213
PerkinElmer UV WinLab 7.4.0.367 / 2.02.11 Lambda 800 UV/VIS, May 23 2018 11:23:04

0
0
1
0
0
UV/VIS
1
1
10
RBeamAtt,SBeamAtt,uv/vis detector
0
0
0
0
Fix
 
0
0.2
0
0
0
 
 
 
0
 
0
319.2
0
Front
100
 
S:100 R:100
 
0
0
0
 
0
 
 
 
0
 
 
0
0
0
0
0
 
 
 
 
0
0


0
0

0


#HDR
-1
-1
#GR
nm
%T
1.0
0.0
800.000000
-1.000000
611
8
100.090571
99.950391
#DATA
800.000000	100.041133
799.000000	100.028629
798.000000	100.074920
797.000000	100.067757
796.000000	100.025600
795.000000	100.005230
794.000000	100.008497
793.000000	99.988344
792.000000	99.971011
791.000000	99.991388
790.000000	99.990841
789.000000	99.985275
788.000000	100.031640
787.000000	100.003383
786.000000	99.972606
785.000000	99.989300
784.000000	99.959385
783.000000	99.991919
782.000000	100.047983
781.000000	100.082783
780.000000	100.042312
779.000000	100.016949
778.000000	100.068701
777.000000	99.968822
776.000000	100.014450
775.000000	100.041492
774.000000	100.035048
773.000000	100.005696
772.000000	99.996713
771.000000	100.009424
770.000000	99.990683
769.000000	100.012503
768.000000	100.033564
767.000000	100.001536
766.000000	100.014158
765.000000	99.974647
764.000000	100.006259
763.000000	99.981554
762.000000	100.000989
761.000000	100.007142
760.000000	100.012423
759.000000	100.043212
758.000000	100.000220
757.000000	100.031139
756.000000	100.003081
755.000000	99.990532
754.000000	100.036449
753.000000	100.030734
752.000000	100.022366
751.000000	100.022927
750.000000	99.972777
749.000000	100.012462
748.000000	100.018865
747.000000	99.981573
746.000000	100.011920
745.000000	100.015347
744.000000	100.018558
743.000000	100.031603
742.000000	99.982764
741.000000	100.003205
740.000000	100.004644
739.000000	100.014376
738.000000	100.044810
737.000000	100.023571
736.000000	100.004317
735.000000	99.990589
734.000000	99.950391
733.000000	99.979286
732.000000	99.998670
731.000000	100.021398
730.000000	100.027392
729.000000	100.040277
728.000000	100.023747
727.000000	99.995672
726.000000	100.003775
725.000000	100.005331
724.000000	99.986005
723.000000	99.974005
722.000000	99.981331
721.000000	99.998221
720.000000	99.976982
719.000000	100.000556
718.000000	100.034157
717.000000	100.009459
716.000000	100.001447
715.000000	99.975954
714.000000	99.991759
713.000000	100.011698
712.000000	99.995989
711.000000	99.997325
710.000000	100.000223
709.000000	100.022862
708.000000	100.006581
707.000000	100.013724
706.000000	100.015292
705.000000	100.014515
704.000000	100.022785
703.000000	100.014520
702.000000	100.000782
701.000000	99.976987
700.000000	99.977205
699.000000	99.996423
698.000000	100.019570
697.000000	100.025842
696.000000	100.027750
695.000000	100.015556
694.000000	100.014776
693.000000	100.011308
692.000000	100.024972
691.000000	100.033600
690.000000	99.997088
689.000000	100.000560
688.000000	100.008515
687.000000	99.997871
686.000000	100.000448
685.000000	100.011548
684.000000	100.009644
683.000000	99.987551
682.000000	99.986987
681.000000	99.984068
680.000000	100.002806
679.000000	100.033797
678.000000	100.029536
677.000000	100.006177
676.000000	100.018536
675.000000	100.034719
674.000000	100.022699
673.000000	100.011802
672.000000	100.018326
671.000000	100.012708
670.000000	100.013722
669.000000	100.014399
668.000000	100.011251
667.000000	100.016094
666.000000	100.015309
665.000000	100.021728
664.000000	100.003715
663.000000	99.994032
662.000000	100.005519
661.000000	100.015886
660.000000	100.035608
659.000000	100.028513
658.000000	100.031339
657.000000	100.026721
656.000000	100.025933
655.000000	100.017591
654.000000	100.021769
653.000000	100.034411
652.000000	100.030468
651.000000	100.032504
650.000000	100.010271
649.000000	99.994921
648.000000	100.002935
647.000000	100.016488
646.000000	100.010617
645.000000	99.997063
644.000000	100.005648
643.000000	100.025763
642.000000	99.982712
641.000000	99.984969
640.000000	100.024194
639.000000	100.013568
638.000000	99.993781
637.000000	99.991292
636.000000	99.998530
635.000000	100.009503
634.000000	100.007920
633.000000	100.011543
632.000000	100.027619
631.000000	100.012112
630.000000	100.003736
629.000000	100.012342
628.000000	100.012457
627.000000	100.024805
626.000000	100.012913
625.000000	99.987427
624.000000	100.015408
623.000000	100.011671
622.000000	100.007026
621.000000	99.999887
620.000000	100.014851
619.000000	100.009864
618.000000	99.990477
617.000000	99.992970
616.000000	99.997732
615.000000	99.997618
614.000000	99.993648
613.000000	99.995916
612.000000	100.018271
611.000000	100.033597
610.000000	100.015097
609.000000	100.025318
608.000000	100.015213
607.000000	100.010559
606.000000	100.009540
605.000000	100.015787
604.000000	100.026242
603.000000	100.009544
602.000000	100.025569
601.000000	100.017731
600.000000	100.009775
599.000000	100.004433
598.000000	100.007618
597.000000	100.012396
596.000000	100.022295
595.000000	99.997611
594.000000	100.010127
593.000000	100.010583
592.000000	100.006488
591.000000	100.007058
590.000000	100.006603
589.000000	100.010249
588.000000	100.013896
587.000000	100.001367
586.000000	99.995557
585.000000	100.007294
584.000000	100.019491
583.000000	100.021204
582.000000	100.023149
581.000000	100.015738
580.000000	100.003536
579.000000	100.026584
578.000000	100.011297
577.000000	100.001369
576.000000	100.003652
575.000000	100.009704
574.000000	99.993264
573.000000	100.007309
572.000000	99.993033
571.000000	100.030165
570.000000	100.014055
569.000000	100.036233
568.000000	100.010173
567.000000	100.022521
566.000000	100.018294
565.000000	100.007662
564.000000	100.031458
563.000000	100.017390
562.000000	99.991194
561.000000	99.998857
560.000000	100.010408
559.000000	99.988332
558.000000	100.007437
557.000000	100.001030
556.000000	100.006181
555.000000	100.005496
554.000000	100.017864
553.000000	99.994044
552.000000	100.005499
551.000000	100.010771
550.000000	99.999312
549.000000	99.996790
548.000000	100.026145
547.000000	100.014797
546.000000	99.998623
545.000000	99.995869
544.000000	100.021236
543.000000	100.008726
542.000000	100.010221
541.000000	100.020104
540.000000	99.996438
539.000000	100.018163
538.000000	100.010923
537.000000	99.987350
536.000000	100.001726
535.000000	100.019108
534.000000	100.016119
533.000000	100.015321
532.000000	100.016709
531.000000	100.006455
530.000000	100.002768
529.000000	99.990309
528.000000	100.013855
527.000000	100.026569
526.000000	100.017104
525.000000	100.008672
524.000000	100.003818
523.000000	100.001389
522.000000	100.007067
521.000000	100.005333
520.000000	99.988397
519.000000	100.026941
518.000000	100.004184
517.000000	100.010352
516.000000	100.022816
515.000000	100.008505
514.000000	100.003498
513.000000	99.998483
512.000000	100.021489
511.000000	100.022440
510.000000	100.016256
509.000000	100.009712
508.000000	100.012527
507.000000	99.994730
506.000000	99.998243
505.000000	100.011483
504.000000	100.010077
503.000000	99.991680
502.000000	100.017342
501.000000	100.018747
500.000000	99.989458
499.000000	100.005972
498.000000	100.013465
497.000000	100.008426
496.000000	100.017083
495.000000	100.008421
494.000000	100.014967
493.000000	100.014726
492.000000	99.999182
491.000000	100.021379
490.000000	100.006073
489.000000	100.017750
488.000000	100.006890
487.000000	100.012376
486.000000	100.021715
485.000000	100.006537
484.000000	100.012958
483.000000	99.989498
482.000000	99.988567
481.000000	99.994752
480.000000	100.021360
479.000000	100.008766
478.000000	100.021989
477.000000	100.011234
476.000000	99.998009
475.000000	99.990745
474.000000	99.980541
473.000000	99.997654
472.000000	99.998944
471.000000	100.006577
470.000000	100.014926
469.000000	100.008348
468.000000	100.000941
467.000000	100.012361
466.000000	100.010246
465.000000	100.028636
464.000000	100.014735
463.000000	100.008962
462.000000	100.012503
461.000000	100.035279
460.000000	99.998584
459.000000	99.989851
458.000000	99.994571
457.000000	99.977463
456.000000	100.011567
455.000000	100.001062
454.000000	100.024550
453.000000	100.001888
452.000000	100.026322
451.000000	100.020301
450.000000	100.017351
449.000000	100.010623
448.000000	100.057148
447.000000	100.009679
446.000000	100.008619
445.000000	100.015821
444.000000	100.016880
443.000000	99.994334
442.000000	100.004016
441.000000	100.012880
440.000000	100.024352
439.000000	100.024830
438.000000	99.999290
437.000000	99.993138
436.000000	99.987100
435.000000	100.032564
434.000000	100.008763
433.000000	100.025943
432.000000	100.010190
431.000000	99.997748
430.000000	99.990515
429.000000	99.994426
428.000000	100.002492
427.000000	99.997152
426.000000	99.999763
425.000000	100.023400
424.000000	100.020792
423.000000	100.002733
422.000000	100.017711
421.000000	100.040670
420.000000	100.025928
419.000000	100.007733
418.000000	100.034994
417.000000	100.013573
416.000000	99.997380
415.000000	99.996903
414.000000	99.993923
413.000000	100.002622
412.000000	100.017171
411.000000	100.014551
410.000000	100.017177
409.000000	100.007039
408.000000	100.001194
407.000000	100.019581
406.000000	100.032483
405.000000	100.024009
404.000000	99.993668
403.000000	100.002152
402.000000	100.010880
401.000000	99.982662
400.000000	100.003828
399.000000	100.006701
398.000000	100.007183
397.000000	99.997126
396.000000	100.017008
395.000000	100.028036
394.000000	100.017615
393.000000	100.012704
392.000000	99.993887
391.000000	99.995803
390.000000	100.029029
389.000000	100.024355
388.000000	100.041643
387.000000	100.046448
386.000000	99.998200
385.000000	100.005523
384.000000	100.034343
383.000000	100.014409
382.000000	99.984872
381.000000	99.990513
380.000000	100.000961
379.000000	100.011729
378.000000	100.014764
377.000000	100.019163
376.000000	99.999881
375.000000	100.038655
374.000000	100.090571
373.000000	100.052256
372.000000	100.032302
371.000000	100.019755
370.000000	100.011620
369.000000	100.017264
368.000000	100.023997
367.000000	100.025683
366.000000	99.997119
365.000000	100.011532
364.000000	100.035827
363.000000	100.057246
362.000000	100.053411
361.000000	99.998436
360.000000	100.006139
359.000000	100.024925
358.000000	99.999157
357.000000	100.030964
356.000000	100.043380
355.000000	100.021092
354.000000	99.988548
353.000000	99.976489
352.000000	99.987215
351.000000	99.990711
350.000000	99.990349
349.000000	99.985762
348.000000	100.010502
347.000000	100.053864
346.000000	100.077190
345.000000	100.012800
344.000000	99.995049
343.000000	100.010024
342.000000	100.011476
341.000000	99.992631
340.000000	99.994684
339.000000	100.007371
338.000000	100.011482
337.000000	100.022004
336.000000	100.048255
335.000000	100.034228
334.000000	100.022977
333.000000	100.028189
332.000000	99.992137
331.000000	99.988751
330.000000	100.027109
329.000000	100.020821
328.000000	99.965145
327.000000	100.021915
326.000000	100.044565
325.000000	100.010294
324.000000	99.965615
323.000000	99.994066
322.000000	100.019144
321.000000	99.992609
320.000000	100.013571
319.000000	99.994444
318.000000	99.963343
317.000000	100.016048
316.000000	100.013879
315.000000	99.969825
314.000000	99.995048
313.000000	100.044958
312.000000	100.051030
311.000000	99.976179
310.000000	99.983907
309.000000	99.997579
308.000000	99.995760
307.000000	100.030188
306.000000	100.029107
305.000000	99.990657
304.000000	99.979970
303.000000	100.018346
302.000000	100.019573
301.000000	100.020314
300.000000	100.002677
299.000000	99.981736
298.000000	100.026082
297.000000	100.042083
296.000000	100.024652
295.000000	100.019665
294.000000	100.000611
293.000000	100.013458
292.000000	100.009920
291.000000	100.010662
290.000000	100.022204
289.000000	100.006384
288.000000	100.004792
287.000000	100.013529
286.000000	100.003816
285.000000	100.042392
284.000000	100.020103
283.000000	100.001481
282.000000	99.995555
281.000000	99.991721
280.000000	99.978732
279.000000	100.009899
278.000000	100.005695
277.000000	99.990708
276.000000	99.990208
275.000000	99.993181
274.000000	100.012284
273.000000	100.009184
272.000000	99.990937
271.000000	99.988947
270.000000	99.979998
269.000000	100.000870
268.000000	100.005718
267.000000	99.989308
266.000000	100.006965
265.000000	100.001617
264.000000	99.996766
263.000000	100.001493
262.000000	100.013064
261.000000	100.005848
260.000000	100.010698
259.000000	99.996020
258.000000	99.998756
257.000000	99.991796
256.000000	100.016902
255.000000	100.021745
254.000000	100.001615
253.000000	100.002979
252.000000	99.976918
251.000000	100.015751
250.000000	100.007068
249.000000	100.000620
248.000000	99.997398
247.000000	100.002352
246.000000	100.018316
245.000000	100.023125
244.000000	99.989500
243.000000	100.009628
242.000000	100.009493
241.000000	100.015638
240.000000	99.991024
239.000000	100.019646
238.000000	100.016678
237.000000	99.968901
236.000000	100.007829
235.000000	100.009777
234.000000	99.982291
233.000000	99.989865
232.000000	100.009894
231.000000	100.023459
230.000000	99.997310
229.000000	100.010768
228.000000	100.002940
227.000000	100.020000
226.000000	99.991519
225.000000	99.994952
224.000000	100.004071
223.000000	99.993323
222.000000	100.011033
221.000000	100.026595
220.000000	100.009719
219.000000	100.002873
218.000000	99.984470
217.000000	100.001382
216.000000	99.993451
215.000000	99.991159
214.000000	100.013434
213.000000	100.020983
212.000000	100.033819
211.000000	100.039054
210.000000	100.012206
209.000000	100.010188
208.000000	100.005049
207.000000	100.020015
206.000000	100.020746
205.000000	99.999345
204.000000	100.026465
203.000000	99.981611
202.000000	99.977116
201.000000	100.018741
200.000000	100.005653
199.000000	99.994595
198.000000	100.049039
197.000000	100.052178
196.000000	99.992682
195.000000	99.996479
194.000000	100.016600
193.000000	100.044876
192.000000	99.982526
191.000000	100.005865
190.000000	100.059529
