PE UV       SUBTECH     SPECTRUM    ASCII       PEDS        4.00        
   -1
N2_8bar.Sample.Cycle5.ASC
26/05/13
16:26:18.00
26/05/13
16:26:18.00
Jinky Agarwala

190.000000
1
Lambda 850+
860L2410213
PerkinElmer UV WinLab 7.4.0.367 / 2.02.11 Lambda 800 UV/VIS, May 23 2018 11:23:04

0
0
1
0
0
UV/VIS
1
1
10
RBeamAtt,SBeamAtt,uv/vis detector
0
0
0
0
Fix
 
0
0.2
0
0
0
 
 
 
0
 
0
319.2
0
Front
100
 
S:100 R:100
 
0
0
0
 
0
 
 
 
0
 
 
0
0
0
0
0
 
 
 
 
0
0


0
0

0


#HDR
-1
-1
#GR
nm
%T
1.0
0.0
800.000000
-1.000000
611
8
100.078163
99.953669
#DATA
800.000000	99.976386
799.000000	100.018941
798.000000	100.067951
797.000000	100.071678
796.000000	100.066777
795.000000	100.026914
794.000000	99.989216
793.000000	99.971458
792.000000	99.980710
791.000000	99.997602
790.000000	99.999673
789.000000	99.984075
788.000000	100.021930
787.000000	100.005456
786.000000	100.052714
785.000000	100.028170
784.000000	99.990829
783.000000	99.981764
782.000000	100.038146
781.000000	100.065723
780.000000	100.021539
779.000000	100.014981
778.000000	100.051088
777.000000	100.011706
776.000000	100.078163
775.000000	100.014889
774.000000	100.056734
773.000000	100.043490
772.000000	99.973378
771.000000	100.003287
770.000000	100.005152
769.000000	100.034109
768.000000	100.030821
767.000000	100.014045
766.000000	100.006914
765.000000	99.997695
764.000000	100.027012
763.000000	99.995389
762.000000	100.001208
761.000000	99.993297
760.000000	100.047052
759.000000	100.002419
758.000000	99.969315
757.000000	100.025088
756.000000	100.020470
755.000000	100.030054
754.000000	99.994054
753.000000	100.002974
752.000000	100.016416
751.000000	100.033839
750.000000	99.979610
749.000000	100.010257
748.000000	100.012136
747.000000	100.024716
746.000000	100.028255
745.000000	100.025064
744.000000	100.064621
743.000000	100.047846
742.000000	99.979339
741.000000	99.996022
740.000000	100.031734
739.000000	99.998452
738.000000	100.022460
737.000000	100.032092
736.000000	100.014280
735.000000	99.998339
734.000000	99.976635
733.000000	99.985046
732.000000	99.999778
731.000000	100.020511
730.000000	100.033824
729.000000	100.037392
728.000000	100.002774
727.000000	99.995561
726.000000	100.003997
725.000000	100.024545
724.000000	100.010107
723.000000	100.001889
722.000000	100.001000
721.000000	100.009894
720.000000	100.022907
719.000000	100.012012
718.000000	100.013129
717.000000	100.022369
716.000000	100.015694
715.000000	100.002226
714.000000	100.007461
713.000000	100.020388
712.000000	100.016825
711.000000	100.004346
710.000000	99.997547
709.000000	100.031895
708.000000	100.032349
707.000000	100.022093
706.000000	100.010157
705.000000	100.022889
704.000000	100.059308
703.000000	100.025467
702.000000	99.990170
701.000000	100.002793
700.000000	99.987038
699.000000	100.016655
698.000000	100.025273
697.000000	100.015214
696.000000	100.024505
695.000000	100.024957
694.000000	100.027984
693.000000	100.035828
692.000000	100.019261
691.000000	100.028000
690.000000	100.001008
689.000000	99.997423
688.000000	99.994286
687.000000	99.996415
686.000000	100.025108
685.000000	100.018836
684.000000	100.017493
683.000000	100.000000
682.000000	99.995961
681.000000	100.004488
680.000000	100.017734
679.000000	100.044464
678.000000	100.035488
677.000000	100.005952
676.000000	100.019884
675.000000	100.034832
674.000000	100.022362
673.000000	100.003597
672.000000	100.024847
671.000000	100.047797
670.000000	100.024182
669.000000	100.030147
668.000000	100.022953
667.000000	100.022847
666.000000	100.027916
665.000000	100.003940
664.000000	99.999662
663.000000	100.007094
662.000000	100.014643
661.000000	100.023773
660.000000	100.019607
659.000000	100.017694
658.000000	100.027845
657.000000	100.023339
656.000000	100.014658
655.000000	100.019396
654.000000	100.025604
653.000000	100.021662
652.000000	100.021553
651.000000	100.020541
650.000000	99.995034
649.000000	99.989051
648.000000	100.003500
647.000000	100.018182
646.000000	100.017281
645.000000	100.015023
644.000000	100.012426
643.000000	100.016385
642.000000	99.991300
641.000000	100.002712
640.000000	100.022159
639.000000	100.002601
638.000000	99.990501
637.000000	99.995250
636.000000	100.001018
635.000000	100.012445
634.000000	99.997624
633.000000	100.007696
632.000000	100.023884
631.000000	100.022413
630.000000	100.014943
629.000000	100.007020
628.000000	99.990261
627.000000	99.996376
626.000000	100.002945
625.000000	99.995130
624.000000	100.008157
623.000000	100.008159
622.000000	100.006913
621.000000	99.994900
620.000000	100.010089
619.000000	100.015306
618.000000	99.997279
617.000000	99.999773
616.000000	99.994329
615.000000	99.992401
614.000000	99.983779
613.000000	99.986953
612.000000	100.011008
611.000000	100.018274
610.000000	100.011919
609.000000	100.024864
608.000000	100.003747
607.000000	99.986262
606.000000	100.002839
605.000000	100.012266
604.000000	100.019880
603.000000	100.004317
602.000000	100.008182
601.000000	100.026255
600.000000	100.014777
599.000000	100.014437
598.000000	100.018875
597.000000	100.021039
596.000000	100.015697
595.000000	100.012514
594.000000	100.010923
593.000000	100.017525
592.000000	100.019463
591.000000	100.017076
590.000000	99.999886
589.000000	99.985083
588.000000	100.003189
587.000000	100.001025
586.000000	100.009229
585.000000	100.029177
584.000000	100.027014
583.000000	100.009234
582.000000	100.027254
581.000000	100.017220
580.000000	100.025894
579.000000	100.029436
578.000000	100.028756
577.000000	100.015405
576.000000	100.005250
575.000000	100.006850
574.000000	99.997717
573.000000	100.002741
572.000000	99.990635
571.000000	100.015996
570.000000	100.021025
569.000000	100.030518
568.000000	100.020917
567.000000	100.016920
566.000000	100.002401
565.000000	100.018298
564.000000	100.030772
563.000000	100.012814
562.000000	100.012694
561.000000	100.006975
560.000000	100.025733
559.000000	100.017159
558.000000	100.014760
557.000000	100.007553
556.000000	100.009729
555.000000	100.013853
554.000000	100.015688
553.000000	100.002176
552.000000	100.013289
551.000000	100.005615
550.000000	100.006189
549.000000	99.993925
548.000000	100.012270
547.000000	100.014682
546.000000	100.011701
545.000000	100.007344
544.000000	100.025943
543.000000	99.998852
542.000000	99.999081
541.000000	100.020678
540.000000	100.014707
539.000000	100.027474
538.000000	100.009659
537.000000	99.988730
536.000000	100.007134
535.000000	100.017957
534.000000	100.016350
533.000000	100.030297
532.000000	99.999309
531.000000	100.008992
530.000000	100.001499
529.000000	100.005999
528.000000	100.015702
527.000000	100.030497
526.000000	100.004969
525.000000	100.013066
524.000000	99.993984
523.000000	100.011346
522.000000	100.011470
521.000000	100.004753
520.000000	100.005917
519.000000	100.025548
518.000000	100.008367
517.000000	99.998372
516.000000	100.018858
515.000000	100.020273
514.000000	100.012243
513.000000	99.991249
512.000000	100.015183
511.000000	100.009233
510.000000	100.008771
509.000000	100.003627
508.000000	100.011941
507.000000	100.009018
506.000000	100.015229
505.000000	100.016756
504.000000	100.013710
503.000000	100.002461
502.000000	99.994376
501.000000	100.013591
500.000000	100.012885
499.000000	100.010773
498.000000	100.036999
497.000000	100.000585
496.000000	100.036858
495.000000	100.015906
494.000000	100.022099
493.000000	99.991351
492.000000	99.986798
491.000000	100.033646
490.000000	99.998832
489.000000	100.009926
488.000000	100.019736
487.000000	100.007940
486.000000	100.011908
485.000000	100.023346
484.000000	100.031636
483.000000	99.991948
482.000000	100.000117
481.000000	100.003499
480.000000	99.995798
479.000000	100.018116
478.000000	100.015907
477.000000	100.004096
476.000000	100.009835
475.000000	100.014059
474.000000	99.991208
473.000000	99.998944
472.000000	99.999531
471.000000	100.007047
470.000000	100.026209
469.000000	99.989418
468.000000	99.999529
467.000000	99.998823
466.000000	99.997645
465.000000	100.010370
464.000000	100.005658
463.000000	100.006014
462.000000	100.009436
461.000000	100.024424
460.000000	100.013333
459.000000	100.020062
458.000000	100.013217
457.000000	99.989734
456.000000	100.030333
455.000000	100.016993
454.000000	99.995279
453.000000	99.995279
452.000000	100.010387
451.000000	100.020065
450.000000	100.011213
449.000000	100.000236
448.000000	100.057384
447.000000	100.004013
446.000000	100.033058
445.000000	100.020780
444.000000	100.019949
443.000000	99.990793
442.000000	100.020314
441.000000	100.019142
440.000000	100.020451
439.000000	99.996571
438.000000	100.003667
437.000000	99.998580
436.000000	100.007693
435.000000	100.034577
434.000000	99.998224
433.000000	99.998342
432.000000	99.992417
431.000000	99.998459
430.000000	100.011738
429.000000	99.987072
428.000000	100.002492
427.000000	99.990743
426.000000	100.004036
425.000000	100.007008
424.000000	100.031842
423.000000	100.018896
422.000000	100.003923
421.000000	100.010227
420.000000	100.005590
419.000000	99.999881
418.000000	100.026900
417.000000	100.007144
416.000000	100.000238
415.000000	100.001549
414.000000	100.002621
413.000000	100.010489
412.000000	100.030287
411.000000	100.011569
410.000000	99.998569
409.000000	99.984251
408.000000	100.005132
407.000000	100.011104
406.000000	99.993909
405.000000	99.981247
404.000000	99.991875
403.000000	100.019005
402.000000	100.000956
401.000000	99.974053
400.000000	99.993540
399.000000	100.006342
398.000000	100.023822
397.000000	100.028860
396.000000	100.020961
395.000000	100.017373
394.000000	100.002277
393.000000	100.003356
392.000000	99.995445
391.000000	100.003957
390.000000	100.015114
389.000000	100.029754
388.000000	100.048844
387.000000	100.035526
386.000000	100.018484
385.000000	100.024732
384.000000	100.031461
383.000000	100.008405
382.000000	99.980069
381.000000	99.978504
380.000000	99.990871
379.000000	99.985279
378.000000	100.017264
377.000000	100.062013
376.000000	100.013821
375.000000	100.012766
374.000000	100.064045
373.000000	100.067801
372.000000	100.032661
371.000000	100.037354
370.000000	100.023240
369.000000	100.028893
368.000000	100.033355
367.000000	99.996400
366.000000	99.953669
365.000000	99.989429
364.000000	100.040636
363.000000	100.046182
362.000000	100.040900
361.000000	99.998797
360.000000	99.989167
359.000000	100.017219
358.000000	100.015174
357.000000	100.027711
356.000000	100.029884
355.000000	100.008558
354.000000	99.983003
353.000000	99.993971
352.000000	100.045108
351.000000	100.055613
350.000000	100.004826
349.000000	99.988296
348.000000	100.032954
347.000000	100.034420
346.000000	100.004711
345.000000	99.962567
344.000000	99.995774
343.000000	100.020532
342.000000	99.991182
341.000000	99.984054
340.000000	100.009061
339.000000	100.024530
338.000000	100.041820
337.000000	100.057670
336.000000	100.053698
335.000000	100.040396
334.000000	99.985488
333.000000	100.020809
332.000000	100.012461
331.000000	99.968068
330.000000	100.028925
329.000000	100.044910
328.000000	100.017791
327.000000	100.040076
326.000000	100.011868
325.000000	100.015743
324.000000	99.983050
323.000000	99.994308
322.000000	100.037803
321.000000	100.035260
320.000000	100.003150
319.000000	99.978138
318.000000	99.976004
317.000000	100.006154
316.000000	99.989621
315.000000	99.971394
314.000000	99.969926
313.000000	99.972082
312.000000	100.009311
311.000000	99.985490
310.000000	100.031581
309.000000	100.021793
308.000000	100.000363
307.000000	100.045100
306.000000	100.011158
305.000000	100.002912
304.000000	99.983855
303.000000	100.025393
302.000000	100.028569
301.000000	100.022139
300.000000	100.007302
299.000000	99.987702
298.000000	100.002438
297.000000	100.027080
296.000000	99.992067
295.000000	100.004031
294.000000	99.988143
293.000000	100.003548
292.000000	100.016533
291.000000	100.014584
290.000000	100.037171
289.000000	100.004174
288.000000	100.000491
287.000000	99.991883
286.000000	100.007633
285.000000	100.029822
284.000000	100.011346
283.000000	100.008270
282.000000	99.993702
281.000000	99.993080
280.000000	100.010263
279.000000	99.984161
278.000000	99.989105
277.000000	100.003965
276.000000	100.014502
275.000000	100.007315
274.000000	100.012656
273.000000	100.009929
272.000000	99.998758
271.000000	100.009935
270.000000	100.021244
269.000000	100.000000
268.000000	100.003108
267.000000	99.999130
266.000000	100.012562
265.000000	99.993159
264.000000	99.994030
263.000000	100.035579
262.000000	100.033469
261.000000	100.019409
260.000000	100.000000
259.000000	100.020273
258.000000	100.016539
257.000000	99.992045
256.000000	100.014914
255.000000	100.019384
254.000000	100.005341
253.000000	100.011048
252.000000	100.025564
251.000000	99.994791
250.000000	100.012152
249.000000	99.990458
248.000000	100.011521
247.000000	100.000495
246.000000	100.043438
245.000000	100.012861
244.000000	99.993823
243.000000	100.020738
242.000000	99.996918
241.000000	100.029676
240.000000	100.000492
239.000000	100.012524
238.000000	100.015942
237.000000	99.982736
236.000000	100.018962
235.000000	100.013199
234.000000	100.005007
233.000000	99.994993
232.000000	100.010749
231.000000	100.009775
230.000000	100.009414
229.000000	100.030959
228.000000	99.989955
227.000000	100.011411
226.000000	99.982793
225.000000	99.984980
224.000000	99.993955
223.000000	100.001855
222.000000	100.016611
221.000000	100.033057
220.000000	100.026290
219.000000	100.019363
218.000000	100.019788
217.000000	100.042450
216.000000	100.000000
215.000000	99.992170
214.000000	99.996705
213.000000	100.005341
212.000000	100.046325
211.000000	100.022152
210.000000	100.046255
209.000000	100.007608
208.000000	100.022527
207.000000	100.025214
206.000000	100.006654
205.000000	100.025952
204.000000	100.029756
203.000000	100.008334
202.000000	99.999867
201.000000	100.018339
200.000000	100.053565
199.000000	100.023916
198.000000	100.054865
197.000000	100.041065
196.000000	99.994579
195.000000	99.996615
194.000000	99.996356
193.000000	100.007547
192.000000	99.975723
191.000000	100.013330
190.000000	100.015707
