PE UV       SUBTECH     SPECTRUM    ASCII       PEDS        4.00        
   -1
N2_8bar.Sample.Cycle10.ASC
26/05/13
16:26:18.00
26/05/13
16:26:18.00
Jinky Agarwala

190.000000
1
Lambda 850+
860L2410213
PerkinElmer UV WinLab 7.4.0.367 / 2.02.11 Lambda 800 UV/VIS, May 23 2018 11:23:04

0
0
1
0
0
UV/VIS
1
1
10
RBeamAtt,SBeamAtt,uv/vis detector
0
0
0
0
Fix
 
0
0.2
0
0
0
 
 
 
0
 
0
319.2
0
Front
100
 
S:100 R:100
 
0
0
0
 
0
 
 
 
0
 
 
0
0
0
0
0
 
 
 
 
0
0


0
0

0


#HDR
-1
-1
#GR
nm
%T
1.0
0.0
800.000000
-1.000000
611
8
100.120906
99.938185
#DATA
800.000000	99.987812
799.000000	99.992271
798.000000	100.075791
797.000000	100.052070
796.000000	100.023748
795.000000	100.048162
794.000000	100.005991
793.000000	99.972766
792.000000	99.990301
791.000000	99.972311
790.000000	100.004253
789.000000	100.004363
788.000000	100.017675
787.000000	100.020079
786.000000	99.998035
785.000000	100.040289
784.000000	100.015504
783.000000	100.002730
782.000000	100.065690
781.000000	100.082564
780.000000	100.023288
779.000000	100.004921
778.000000	100.004485
777.000000	99.979433
776.000000	100.030324
775.000000	100.034376
774.000000	100.045125
773.000000	100.005368
772.000000	100.007121
771.000000	100.017862
770.000000	100.004933
769.000000	99.983439
768.000000	100.004058
767.000000	100.031821
766.000000	100.036657
765.000000	100.005817
764.000000	100.036126
763.000000	99.997475
762.000000	99.981437
761.000000	99.998132
760.000000	100.056837
759.000000	100.020781
758.000000	100.016718
757.000000	100.027288
756.000000	99.976449
755.000000	99.990753
754.000000	99.984474
753.000000	100.033488
752.000000	99.992398
751.000000	100.023037
750.000000	99.947097
749.000000	100.023602
748.000000	100.028795
747.000000	100.007172
746.000000	100.014348
745.000000	100.011483
744.000000	100.045511
743.000000	100.026078
742.000000	100.014916
741.000000	99.990607
740.000000	100.033393
739.000000	100.017030
738.000000	100.033303
737.000000	100.016710
736.000000	100.006642
735.000000	100.002879
734.000000	99.978739
733.000000	100.000775
732.000000	100.013077
731.000000	100.029159
730.000000	100.019740
729.000000	100.037281
728.000000	100.046272
727.000000	100.017313
726.000000	100.017763
725.000000	100.020214
724.000000	99.996001
723.000000	100.004999
722.000000	99.993444
721.000000	100.007004
720.000000	100.015123
719.000000	100.004226
718.000000	100.017357
717.000000	100.012353
716.000000	100.022929
715.000000	99.999332
714.000000	100.012584
713.000000	100.020722
712.000000	99.989972
711.000000	99.981611
710.000000	99.989298
709.000000	100.028104
708.000000	100.042500
707.000000	100.038049
706.000000	100.024779
705.000000	100.032826
704.000000	100.072712
703.000000	100.024015
702.000000	99.994415
701.000000	99.976987
700.000000	99.960891
699.000000	99.975744
698.000000	100.014538
697.000000	100.046426
696.000000	100.031778
695.000000	100.016339
694.000000	100.022723
693.000000	100.016794
692.000000	99.998656
691.000000	99.999664
690.000000	100.012656
689.000000	100.034393
688.000000	99.998544
687.000000	99.979272
686.000000	100.010649
685.000000	99.997758
684.000000	99.995402
683.000000	99.993047
682.000000	99.987884
681.000000	99.989790
680.000000	100.022448
679.000000	100.038737
678.000000	100.029985
677.000000	100.007525
676.000000	100.010897
675.000000	100.010787
674.000000	100.009215
673.000000	100.012926
672.000000	100.015515
671.000000	100.030253
670.000000	100.018783
669.000000	100.004050
668.000000	100.021490
667.000000	100.028812
666.000000	100.010356
665.000000	100.010357
664.000000	99.999662
663.000000	99.999212
662.000000	100.011263
661.000000	100.022984
660.000000	100.027270
659.000000	100.017356
658.000000	100.017361
657.000000	100.021648
656.000000	100.006540
655.000000	99.994813
654.000000	100.003045
653.000000	100.024144
652.000000	100.024600
651.000000	100.018848
650.000000	100.008127
649.000000	99.986568
648.000000	99.982389
647.000000	100.011067
646.000000	100.015135
645.000000	100.007455
644.000000	100.000452
643.000000	100.008588
642.000000	100.003503
641.000000	100.009832
640.000000	100.037761
639.000000	100.029964
638.000000	100.015266
637.000000	100.010179
636.000000	100.016288
635.000000	100.008824
634.000000	99.996153
633.000000	100.014146
632.000000	100.027506
631.000000	100.012904
630.000000	100.008264
629.000000	100.017211
628.000000	100.015741
627.000000	100.015404
626.000000	100.010874
625.000000	100.001926
624.000000	100.004305
623.000000	99.992975
622.000000	100.003966
621.000000	100.010087
620.000000	100.022899
619.000000	100.007029
618.000000	99.994445
617.000000	99.997619
616.000000	100.001361
615.000000	99.997278
614.000000	100.002496
613.000000	99.998412
612.000000	100.028144
611.000000	100.021906
610.000000	100.010103
609.000000	100.016803
608.000000	100.008061
607.000000	99.997389
606.000000	100.010335
605.000000	100.003862
604.000000	100.015904
603.000000	100.009089
602.000000	100.014205
601.000000	100.012275
600.000000	100.022279
599.000000	100.008412
598.000000	100.009096
597.000000	100.015694
596.000000	100.022408
595.000000	100.014675
594.000000	100.022757
593.000000	100.015590
592.000000	99.994878
591.000000	100.008880
590.000000	99.999772
589.000000	99.999431
588.000000	99.998975
587.000000	100.006721
586.000000	100.010482
585.000000	100.023820
584.000000	100.017895
583.000000	100.003762
582.000000	100.018816
581.000000	100.008553
580.000000	100.027605
579.000000	100.022248
578.000000	100.024077
577.000000	100.006276
576.000000	100.006277
575.000000	100.013128
574.000000	99.995091
573.000000	100.005596
572.000000	100.002056
571.000000	100.019767
570.000000	100.007542
569.000000	100.036805
568.000000	100.006287
567.000000	100.008803
566.000000	100.010634
565.000000	100.018069
564.000000	100.021735
563.000000	100.024484
562.000000	100.007891
561.000000	99.994169
560.000000	100.009493
559.000000	100.019447
558.000000	100.015103
557.000000	100.009498
556.000000	100.002404
555.000000	100.002061
554.000000	100.008817
553.000000	100.007789
552.000000	99.997365
551.000000	100.009511
550.000000	100.021203
549.000000	100.004127
548.000000	100.005275
547.000000	100.004703
546.000000	99.999656
545.000000	100.002410
544.000000	100.019744
543.000000	100.005052
542.000000	100.004938
541.000000	100.021827
540.000000	99.992877
539.000000	100.021037
538.000000	100.027021
537.000000	99.995630
536.000000	100.016453
535.000000	100.028432
534.000000	100.028554
533.000000	100.010252
532.000000	100.010947
531.000000	100.017291
530.000000	99.997463
529.000000	100.005769
528.000000	100.021360
527.000000	100.015364
526.000000	99.996764
525.000000	100.008210
524.000000	100.016892
523.000000	100.010304
522.000000	100.004171
521.000000	99.997913
520.000000	100.011371
519.000000	100.025199
518.000000	100.014642
517.000000	100.007560
516.000000	100.015832
515.000000	100.019807
514.000000	100.007346
513.000000	99.997900
512.000000	100.009927
511.000000	100.024193
510.000000	100.014501
509.000000	100.017201
508.000000	100.005971
507.000000	100.008550
506.000000	100.007849
505.000000	100.025778
504.000000	100.017928
503.000000	100.007851
502.000000	100.002695
501.000000	100.012420
500.000000	100.011948
499.000000	99.997775
498.000000	100.015807
497.000000	100.017203
496.000000	100.003159
495.000000	100.022104
494.000000	100.015317
493.000000	100.000117
492.000000	99.991821
491.000000	100.017757
490.000000	100.000817
489.000000	100.003503
488.000000	100.015415
487.000000	100.009808
486.000000	100.022065
485.000000	100.005369
484.000000	100.037940
483.000000	100.001400
482.000000	100.019249
481.000000	100.001050
480.000000	100.008871
479.000000	100.014609
478.000000	100.012749
477.000000	100.005149
476.000000	99.996956
475.000000	99.989807
474.000000	100.002462
473.000000	100.004692
472.000000	100.013145
471.000000	100.018558
470.000000	100.024328
469.000000	100.002116
468.000000	100.000588
467.000000	100.002943
466.000000	100.004711
465.000000	100.009899
464.000000	100.011435
463.000000	100.029716
462.000000	100.009200
461.000000	100.031858
460.000000	100.015103
459.000000	100.012981
458.000000	100.011919
457.000000	99.989616
456.000000	100.021953
455.000000	100.005900
454.000000	100.013101
453.000000	99.995279
452.000000	100.017823
451.000000	100.008734
450.000000	100.001416
449.000000	100.009088
448.000000	100.042979
447.000000	100.005311
446.000000	100.015467
445.000000	100.050061
444.000000	100.039072
443.000000	100.006138
442.000000	100.013582
441.000000	100.016661
440.000000	100.028726
439.000000	100.021638
438.000000	100.018806
437.000000	100.014434
436.000000	100.031007
435.000000	100.033156
434.000000	100.001776
433.000000	100.012557
432.000000	100.013389
431.000000	100.003437
430.000000	100.000356
429.000000	99.989444
428.000000	100.011509
427.000000	100.014360
426.000000	100.013652
425.000000	100.023875
424.000000	100.029228
423.000000	100.017707
422.000000	100.007489
421.000000	100.021048
420.000000	99.993459
419.000000	99.974780
418.000000	100.004761
417.000000	100.016193
416.000000	99.999524
415.000000	100.010244
414.000000	100.011201
413.000000	100.021097
412.000000	100.041734
411.000000	100.015028
410.000000	100.006799
409.000000	100.008471
408.000000	99.996300
407.000000	100.012417
406.000000	99.991402
405.000000	99.982441
404.000000	99.989844
403.000000	100.021276
402.000000	99.993424
401.000000	100.002989
400.000000	100.034812
399.000000	99.993778
398.000000	100.016161
397.000000	100.043230
396.000000	100.022398
395.000000	100.032828
394.000000	100.002756
393.000000	100.003835
392.000000	100.000839
391.000000	100.013430
390.000000	100.038145
389.000000	100.043911
388.000000	100.019681
387.000000	100.005401
386.000000	99.996279
385.000000	99.988475
384.000000	100.009847
383.000000	100.020893
382.000000	99.972745
381.000000	99.961811
380.000000	99.973454
379.000000	99.990186
378.000000	100.026789
377.000000	100.036898
376.000000	99.981771
375.000000	99.981388
374.000000	100.036204
373.000000	100.055485
372.000000	100.025722
371.000000	100.025861
370.000000	99.998922
369.000000	99.998202
368.000000	100.033595
367.000000	99.986078
366.000000	99.938185
365.000000	100.009730
364.000000	100.067566
363.000000	100.027541
362.000000	100.013714
361.000000	100.020212
360.000000	100.006139
359.000000	100.005418
358.000000	100.009996
357.000000	100.022891
356.000000	100.007230
355.000000	100.000121
354.000000	99.986137
353.000000	99.995057
352.000000	100.026775
351.000000	100.023041
350.000000	99.989987
349.000000	99.986727
348.000000	99.995775
347.000000	100.050241
346.000000	100.084438
345.000000	100.015335
344.000000	99.984182
343.000000	99.990096
342.000000	100.001812
341.000000	99.987316
340.000000	99.990456
339.000000	100.004954
338.000000	100.006769
337.000000	100.029863
336.000000	100.063373
335.000000	100.036163
334.000000	100.009191
333.000000	100.030972
332.000000	100.029397
331.000000	100.018264
330.000000	100.067289
329.000000	100.065367
328.000000	100.002057
327.000000	100.022762
326.000000	100.015501
325.000000	100.030881
324.000000	99.998789
323.000000	99.957250
322.000000	99.992003
321.000000	99.990064
320.000000	100.032352
319.000000	100.034544
318.000000	99.993609
317.000000	100.037646
316.000000	100.020758
315.000000	100.001448
314.000000	99.995410
313.000000	99.988277
312.000000	100.032891
311.000000	99.979323
310.000000	100.005929
309.000000	100.015619
308.000000	100.029924
307.000000	100.052859
306.000000	100.010430
305.000000	100.001213
304.000000	99.982398
303.000000	100.022842
302.000000	100.026502
301.000000	100.046588
300.000000	100.004138
299.000000	99.974430
298.000000	100.001219
297.000000	100.024030
296.000000	100.004516
295.000000	99.994015
294.000000	100.007212
293.000000	99.993761
292.000000	100.024983
291.000000	100.013359
290.000000	100.031160
289.000000	99.979498
288.000000	99.998280
287.000000	99.993482
286.000000	100.011080
285.000000	100.043871
284.000000	100.052168
283.000000	100.022093
282.000000	99.998395
281.000000	100.002224
280.000000	100.014838
279.000000	100.029327
278.000000	99.996533
277.000000	100.011398
276.000000	100.005950
275.000000	99.986733
274.000000	100.028538
273.000000	100.017624
272.000000	100.013533
271.000000	99.980378
270.000000	99.997764
269.000000	99.999130
268.000000	100.009199
267.000000	99.977621
266.000000	100.013557
265.000000	100.009827
264.000000	99.993159
263.000000	100.010077
262.000000	100.009332
261.000000	100.013312
260.000000	100.010201
259.000000	100.024253
258.000000	100.003731
257.000000	100.014543
256.000000	100.023116
255.000000	100.029449
254.000000	100.008942
253.000000	100.001366
252.000000	100.013030
251.000000	99.984373
250.000000	100.008804
249.000000	100.008799
248.000000	100.013380
247.000000	100.002724
246.000000	100.030567
245.000000	100.043405
244.000000	100.026313
243.000000	100.000370
242.000000	99.994452
241.000000	99.989534
240.000000	100.005287
239.000000	100.005525
238.000000	100.020234
237.000000	99.983471
236.000000	100.014435
235.000000	100.018088
234.000000	99.993283
233.000000	99.990720
232.000000	100.023209
231.000000	100.011119
230.000000	100.008803
229.000000	100.014072
228.000000	100.005390
227.000000	100.014601
226.000000	100.015363
225.000000	99.989166
224.000000	99.978411
223.000000	99.984172
222.000000	100.008801
221.000000	100.010936
220.000000	100.006604
219.000000	100.017739
218.000000	99.983218
217.000000	100.007912
216.000000	99.999622
215.000000	99.990401
214.000000	99.981751
213.000000	100.029122
212.000000	100.043007
211.000000	100.049169
210.000000	100.011307
209.000000	100.013025
208.000000	100.026929
207.000000	100.017416
206.000000	100.017876
205.000000	100.032636
204.000000	100.019355
203.000000	100.026062
202.000000	99.998137
201.000000	100.026505
200.000000	100.040376
199.000000	100.002432
198.000000	100.051342
197.000000	100.037406
196.000000	99.979806
195.000000	99.974813
194.000000	99.985425
193.000000	100.005660
192.000000	100.004002
191.000000	100.007865
190.000000	100.120906
