PE UV       SUBTECH     SPECTRUM    ASCII       PEDS        4.00        
   -1
N2_8bar.Sample.Cycle6.ASC
26/05/13
16:26:18.00
26/05/13
16:26:18.00
Jinky Agarwala

190.000000
1
Lambda 850+
860L2410213
PerkinElmer UV WinLab 7.4.0.367 / 2.02.11 Lambda 800 UV/VIS, May 23 2018 11:23:04

0
0
1
0
0
UV/VIS
1
1
10
RBeamAtt,SBeamAtt,uv/vis detector
0
0
0
0
Fix
 
0
0.2
0
0
0
 
 
 
0
 
0
319.2
0
Front
100
 
S:100 R:100
 
0
0
0
 
0
 
 
 
0
 
 
0
0
0
0
0
 
 
 
 
0
0


0
0

0


#HDR
-1
-1
#GR
nm
%T
1.0
0.0
800.000000
-1.000000
611
8
100.083955
99.954472
#DATA
800.000000	99.999238
799.000000	100.053012
798.000000	100.071653
797.000000	100.058388
796.000000	100.064380
795.000000	100.028549
794.000000	99.995534
793.000000	100.006972
792.000000	99.995205
791.000000	99.968496
790.000000	99.992476
789.000000	100.050938
788.000000	100.001855
787.000000	99.988869
786.000000	99.999454
785.000000	99.998471
784.000000	99.954472
783.000000	100.009391
782.000000	100.044049
781.000000	100.052272
780.000000	100.026022
779.000000	100.019683
778.000000	100.007767
777.000000	99.987638
776.000000	100.020362
775.000000	100.018064
774.000000	100.024315
773.000000	100.071863
772.000000	100.024869
771.000000	100.009205
770.000000	100.034310
769.000000	100.047270
768.000000	100.044203
767.000000	100.042135
766.000000	100.025791
765.000000	100.023048
764.000000	100.026683
763.000000	100.000769
762.000000	99.997583
761.000000	99.979453
760.000000	100.013962
759.000000	100.028478
758.000000	99.988782
757.000000	100.010673
756.000000	99.989325
755.000000	99.980624
754.000000	100.013324
753.000000	100.029192
752.000000	100.023908
751.000000	100.049050
750.000000	99.983468
749.000000	100.011029
748.000000	100.028022
747.000000	99.998786
746.000000	100.001876
745.000000	100.014464
744.000000	100.019552
743.000000	100.025857
742.000000	99.997348
741.000000	99.976020
740.000000	99.996351
739.000000	99.984629
738.000000	100.014273
737.000000	100.006750
736.000000	100.009742
735.000000	100.012732
734.000000	100.004319
733.000000	100.003988
732.000000	100.027705
731.000000	100.019957
730.000000	100.024398
729.000000	100.066906
728.000000	100.006436
727.000000	99.998557
726.000000	100.010103
725.000000	100.020769
724.000000	100.002999
723.000000	99.988447
722.000000	99.993999
721.000000	100.011562
720.000000	99.994551
719.000000	100.019797
718.000000	100.029373
717.000000	100.009126
716.000000	99.994991
715.000000	99.989647
714.000000	100.012139
713.000000	100.032086
712.000000	100.009248
711.000000	99.985735
710.000000	99.993757
709.000000	100.025539
708.000000	100.006916
707.000000	100.011827
706.000000	100.013841
705.000000	100.035617
704.000000	100.052160
703.000000	100.016754
702.000000	99.989612
701.000000	99.970173
700.000000	99.989273
699.000000	100.006483
698.000000	100.030977
697.000000	100.046985
696.000000	100.036925
695.000000	100.012422
694.000000	100.007164
693.000000	100.022504
692.000000	100.011646
691.000000	99.996528
690.000000	100.002464
689.000000	100.008402
688.000000	99.997535
687.000000	99.979496
686.000000	100.008743
685.000000	100.014799
684.000000	99.997084
683.000000	99.990803
682.000000	100.000112
681.000000	99.987434
680.000000	100.015152
679.000000	100.026611
678.000000	100.035263
677.000000	100.019879
676.000000	100.019323
675.000000	100.026742
674.000000	100.019328
673.000000	100.005283
672.000000	100.019788
671.000000	100.033290
670.000000	100.012372
669.000000	100.011699
668.000000	100.016877
667.000000	100.021609
666.000000	100.015872
665.000000	100.028933
664.000000	100.016100
663.000000	99.995834
662.000000	99.993242
661.000000	100.009351
660.000000	100.013635
659.000000	100.005635
658.000000	100.018263
657.000000	100.021422
656.000000	100.004961
655.000000	99.990077
654.000000	100.004512
653.000000	100.031365
652.000000	100.037690
651.000000	100.037244
650.000000	100.014335
649.000000	99.988487
648.000000	100.002258
647.000000	100.029926
646.000000	100.025753
645.000000	100.001807
644.000000	99.990737
643.000000	100.001469
642.000000	100.000000
641.000000	100.011414
640.000000	100.028264
639.000000	100.019109
638.000000	100.015944
637.000000	100.023976
636.000000	100.024206
635.000000	100.019572
634.000000	100.016179
633.000000	100.022634
632.000000	100.026714
631.000000	100.014149
630.000000	100.015283
629.000000	100.028421
628.000000	100.010305
627.000000	100.023106
626.000000	100.025372
625.000000	100.007702
624.000000	100.006231
623.000000	100.010085
622.000000	99.991501
621.000000	99.978920
620.000000	99.996372
619.000000	100.004989
618.000000	99.986622
617.000000	100.000680
616.000000	100.003856
615.000000	99.982193
614.000000	99.986388
613.000000	99.992739
612.000000	100.004312
611.000000	100.006697
610.000000	100.007719
609.000000	100.029973
608.000000	100.006925
607.000000	99.996707
606.000000	100.009653
605.000000	100.005906
604.000000	100.016131
603.000000	100.015224
602.000000	100.022955
601.000000	100.033984
600.000000	100.017959
599.000000	100.011140
598.000000	100.012735
597.000000	100.010690
596.000000	100.015925
595.000000	100.010807
594.000000	100.010468
593.000000	100.023556
592.000000	100.034828
591.000000	100.023110
590.000000	100.012524
589.000000	100.015828
588.000000	100.005809
587.000000	99.993393
586.000000	99.991797
585.000000	100.023136
584.000000	100.001140
583.000000	100.019494
582.000000	100.021096
581.000000	99.999886
580.000000	100.000913
579.000000	100.011866
578.000000	100.017915
577.000000	100.004679
576.000000	100.009359
575.000000	100.011644
574.000000	100.005937
573.000000	100.014846
572.000000	99.998744
571.000000	100.038620
570.000000	100.031538
569.000000	100.025489
568.000000	100.009487
567.000000	100.011204
566.000000	100.004574
565.000000	100.025502
564.000000	100.022192
563.000000	100.035353
562.000000	100.011779
561.000000	100.017494
560.000000	100.004804
559.000000	100.019676
558.000000	100.008696
557.000000	100.000687
556.000000	100.004349
555.000000	100.006182
554.000000	100.020269
553.000000	99.999084
552.000000	100.012487
551.000000	100.009282
550.000000	100.008825
549.000000	99.981201
548.000000	99.998968
547.000000	100.013650
546.000000	100.004703
545.000000	100.005278
544.000000	100.008380
543.000000	99.999311
542.000000	100.006776
541.000000	100.015968
540.000000	100.012179
539.000000	100.019197
538.000000	100.019317
537.000000	99.987235
536.000000	100.011161
535.000000	100.014849
534.000000	99.999309
533.000000	100.018201
532.000000	100.007490
531.000000	100.014064
530.000000	100.008188
529.000000	100.003000
528.000000	100.022283
527.000000	100.018714
526.000000	99.992604
525.000000	100.009366
524.000000	100.009950
523.000000	100.015399
522.000000	99.999305
521.000000	99.991653
520.000000	99.999536
519.000000	100.027057
518.000000	100.019058
517.000000	100.014771
516.000000	100.019673
515.000000	100.014913
514.000000	100.006996
513.000000	99.994166
512.000000	100.023825
511.000000	100.015077
510.000000	100.012630
509.000000	100.013925
508.000000	100.019200
507.000000	100.008901
506.000000	100.003749
505.000000	100.027653
504.000000	100.003047
503.000000	100.007500
502.000000	100.011835
501.000000	100.023902
500.000000	100.017921
499.000000	100.017331
498.000000	100.030442
497.000000	100.005500
496.000000	100.040836
495.000000	100.002339
494.000000	100.011810
493.000000	99.990884
492.000000	99.986097
491.000000	100.026753
490.000000	99.998482
489.000000	99.983067
488.000000	100.015999
487.000000	100.037246
486.000000	100.020898
485.000000	100.013774
484.000000	100.011557
483.000000	99.998833
482.000000	100.000233
481.000000	99.995219
480.000000	99.994281
479.000000	100.008649
478.000000	100.018363
477.000000	100.015564
476.000000	99.998244
475.000000	99.996720
474.000000	99.999062
473.000000	100.007038
472.000000	100.012558
471.000000	100.014917
470.000000	100.023623
469.000000	100.011288
468.000000	100.010824
467.000000	99.999882
466.000000	99.995054
465.000000	100.015791
464.000000	100.017093
463.000000	100.006368
462.000000	100.003892
461.000000	100.013215
460.000000	100.002006
459.000000	99.998702
458.000000	100.002714
457.000000	99.994808
456.000000	100.022661
455.000000	100.001652
454.000000	100.008970
453.000000	100.019002
452.000000	100.025614
451.000000	100.041192
450.000000	100.022309
449.000000	100.023134
448.000000	100.033061
447.000000	100.012983
446.000000	100.016411
445.000000	100.019718
444.000000	100.016172
443.000000	99.984183
442.000000	100.011574
441.000000	100.009571
440.000000	100.041375
439.000000	100.007567
438.000000	100.007688
437.000000	99.992310
436.000000	99.982721
435.000000	100.024867
434.000000	99.993842
433.000000	99.995262
432.000000	99.991232
431.000000	100.000474
430.000000	99.999763
429.000000	99.999407
428.000000	99.994779
427.000000	99.999881
426.000000	99.998932
425.000000	100.015560
424.000000	100.009743
423.000000	100.013548
422.000000	100.011293
421.000000	100.022951
420.000000	100.012964
419.000000	100.003212
418.000000	100.002023
417.000000	100.015002
416.000000	100.007621
415.000000	100.019655
414.000000	100.019780
413.000000	100.008105
412.000000	100.019198
411.000000	100.010495
410.000000	99.990815
409.000000	99.997972
408.000000	100.010026
407.000000	100.023521
406.000000	99.999761
405.000000	99.975753
404.000000	99.991039
403.000000	100.011714
402.000000	100.020923
401.000000	99.994619
400.000000	100.024284
399.000000	100.009453
398.000000	100.027174
397.000000	100.049338
396.000000	100.031620
395.000000	100.026478
394.000000	100.009107
393.000000	99.987176
392.000000	99.983218
391.000000	100.021464
390.000000	100.018473
389.000000	99.992921
388.000000	100.028202
387.000000	100.030485
386.000000	100.009842
385.000000	100.022210
384.000000	100.006604
383.000000	99.978146
382.000000	99.958217
381.000000	99.985589
380.000000	100.015495
379.000000	100.015798
378.000000	100.010835
377.000000	100.012141
376.000000	99.997736
375.000000	100.038774
374.000000	100.065717
373.000000	100.038744
372.000000	100.003111
371.000000	100.005986
370.000000	99.996406
369.000000	100.027455
368.000000	100.065391
367.000000	100.005761
366.000000	99.954509
365.000000	99.994835
364.000000	100.050494
363.000000	100.053999
362.000000	100.027186
361.000000	100.016844
360.000000	100.023230
359.000000	100.013847
358.000000	100.015777
357.000000	100.047831
356.000000	100.045308
355.000000	100.039533
354.000000	100.015912
353.000000	99.992525
352.000000	99.981185
351.000000	99.967066
350.000000	99.979008
349.000000	99.997345
348.000000	100.009053
347.000000	100.071376
346.000000	100.083955
345.000000	100.021131
344.000000	99.981043
343.000000	99.967995
342.000000	100.002416
341.000000	100.014979
340.000000	100.015826
339.000000	100.009788
338.000000	99.978727
337.000000	99.998549
336.000000	100.058051
335.000000	100.053700
334.000000	100.055871
333.000000	100.082753
332.000000	100.034599
331.000000	99.996976
330.000000	100.043084
329.000000	100.019731
328.000000	100.013555
327.000000	100.058479
326.000000	100.039963
325.000000	100.020224
324.000000	99.972274
323.000000	100.012353
322.000000	100.020356
321.000000	100.039743
320.000000	100.007270
319.000000	99.976206
318.000000	99.996021
317.000000	100.035474
316.000000	99.995776
315.000000	99.967894
314.000000	99.983332
313.000000	100.045200
312.000000	100.013423
311.000000	99.961669
310.000000	99.998669
309.000000	99.994310
308.000000	100.027864
307.000000	100.054799
306.000000	100.021224
305.000000	100.009221
304.000000	99.998058
303.000000	100.018832
302.000000	99.998541
301.000000	99.984673
300.000000	100.004260
299.000000	99.987337
298.000000	100.046679
297.000000	100.004269
296.000000	99.958994
295.000000	99.992061
294.000000	99.990221
293.000000	100.018106
292.000000	100.023514
291.000000	99.982107
290.000000	100.036067
289.000000	100.011295
288.000000	100.001720
287.000000	100.010577
286.000000	100.001847
285.000000	100.013556
284.000000	100.018006
283.000000	100.023821
282.000000	99.987899
281.000000	99.991350
280.000000	99.974404
279.000000	100.002104
278.000000	99.996038
277.000000	100.012389
276.000000	100.022807
275.000000	99.998884
274.000000	100.023947
273.000000	100.021348
272.000000	100.001614
271.000000	100.004471
270.000000	100.012548
269.000000	99.995651
268.000000	99.991050
267.000000	99.996643
266.000000	100.007089
265.000000	100.000871
264.000000	99.989925
263.000000	100.005474
262.000000	99.980839
261.000000	100.016547
260.000000	100.020028
259.000000	100.007214
258.000000	100.003233
257.000000	99.999130
256.000000	100.013174
255.000000	100.014911
254.000000	99.978017
253.000000	100.003600
252.000000	100.025812
251.000000	99.995287
250.000000	100.030752
249.000000	100.020820
248.000000	100.008176
247.000000	99.996781
246.000000	100.027102
245.000000	99.989736
244.000000	99.978876
243.000000	100.026046
242.000000	100.016521
241.000000	100.019086
240.000000	100.004549
239.000000	99.995948
238.000000	100.025017
237.000000	100.004285
236.000000	100.030461
235.000000	100.000611
234.000000	100.006717
233.000000	99.997802
232.000000	100.007085
231.000000	100.003299
230.000000	99.997188
229.000000	100.021170
228.000000	99.995590
227.000000	100.026994
226.000000	100.004302
225.000000	99.981409
224.000000	99.997409
223.000000	100.008532
222.000000	100.010785
221.000000	100.014167
220.000000	100.011214
219.000000	100.025234
218.000000	100.000250
217.000000	100.023988
216.000000	99.991184
215.000000	99.976003
214.000000	100.029402
213.000000	100.021492
212.000000	100.040455
211.000000	100.021383
210.000000	100.015290
209.000000	99.989168
208.000000	100.026929
207.000000	100.013127
206.000000	99.986039
205.000000	100.030408
204.000000	100.016458
203.000000	100.028178
202.000000	100.005189
201.000000	100.011244
200.000000	100.017362
199.000000	100.013107
198.000000	100.076404
197.000000	100.042149
196.000000	99.973437
195.000000	100.019500
194.000000	100.006343
193.000000	100.032882
192.000000	100.035481
191.000000	100.021728
190.000000	100.053193
